0.026024028658866882,0.03227328136563301,0.04925859719514847
0.0519091822206974,0.06207148730754852,0.053996626287698746
0.09254904091358185,0.1647801697254181,0.09891657531261444
0.134810209274292,0.0862727016210556,0.09976724535226822
0.24262958765029907,0.24617913365364075,0.24186691641807556
0.2075333595275879,0.2566412687301636,0.21497268974781036
0.2774278521537781,0.19086100161075592,0.1965361088514328
0.14563851058483124,0.13519807159900665,0.1181902214884758
0.14862965047359467,0.4330023229122162,0.30731403827667236
0.1514512002468109,0.07981269061565399,0.0960824117064476
0.36185526847839355,0.20655557513237,0.27231189608573914
0.13035833835601807,0.07719001919031143,0.18123547732830048
0.193340465426445,0.09066329896450043,0.21597440540790558
0.1307598203420639,0.11757705360651016,0.0799378827214241
0.22571027278900146,0.12981374561786652,0.15880557894706726
0.06763702630996704,0.10855250060558319,0.023469241335988045
0.2510111629962921,0.2986619174480438,0.23982973396778107
0.20235304534435272,0.08268126845359802,0.17204992473125458
0.23254624009132385,0.11207706481218338,0.14278028905391693
0.2006273865699768,0.19466324150562286,0.13452327251434326
0.15571749210357666,0.13401295244693756,0.12049422413110733
0.157434344291687,0.08822840452194214,0.06656283885240555
0.19605626165866852,0.12680713832378387,0.1416402906179428
0.02302192896604538,0.020648712292313576,0.02351314388215542
0.06827019155025482,0.0765877515077591,0.08864881843328476
0.0604947954416275,0.032824888825416565,0.05144765228033066
0.2833917737007141,0.4411464333534241,0.3841778039932251
0.11186756193637848,0.1069219633936882,0.10289190709590912
0.19608718156814575,0.12424907088279724,0.12771105766296387
0.09662768244743347,0.1431758552789688,0.10080143064260483
0.04506576433777809,0.05044017359614372,0.05017540231347084
0.1524888575077057,0.05810130015015602,0.39817294478416443
0.13944025337696075,0.13959385454654694,0.07280440628528595
0.07090403884649277,0.09181711077690125,0.05288185179233551
0.09833505004644394,0.09301349520683289,0.09598471224308014
0.11164448410272598,0.14842934906482697,0.1376992017030716
0.06755738705396652,0.03792862221598625,0.029722707346081734
0.043539199978113174,0.12196749448776245,0.017966995015740395
0.23059262335300446,0.06583121418952942,0.1712074875831604
0.1325760930776596,0.13215844333171844,0.3569129407405853
0.4293670654296875,0.46902740001678467,0.1044827252626419
0.20179413259029388,0.20647527277469635,0.04897105321288109
0.24766522645950317,0.6214988827705383,0.2514747679233551
0.0663878470659256,0.14869381487369537,0.250463604927063
0.11425980925559998,0.14390495419502258,0.36985161900520325
0.15479029715061188,0.11486155539751053,0.3539707064628601
0.09836447238922119,0.07511860132217407,0.04903846234083176
0.13925884664058685,0.11479225754737854,0.1587768942117691
0.1460079848766327,0.09442740678787231,0.2866281270980835
0.07902319729328156,0.04019906744360924,0.08386024832725525
0.1097240149974823,0.08149979263544083,0.09636497497558594
0.06694246083498001,0.03158051520586014,0.022147316485643387
0.04765164852142334,0.0985022559762001,0.05802638828754425
0.0970909520983696,0.06379928439855576,0.18825969099998474
0.04506029561161995,0.07228577136993408,0.11541270464658737
0.3741804361343384,0.1191658303141594,0.3358166515827179
0.09208168834447861,0.08510902523994446,0.07361538708209991
0.06788552552461624,0.03998401015996933,0.05393605679273605
0.09380772709846497,0.18242406845092773,0.10022197663784027
0.3168574273586273,0.12520979344844818,0.19480308890342712
0.11598820984363556,0.16855774819850922,0.1508682370185852
0.05638503283262253,0.10497496277093887,0.16220660507678986
0.07198333740234375,0.08891083300113678,0.0869530588388443
0.13780276477336884,0.18125441670417786,0.08132202178239822
0.04172008857131004,0.03662760555744171,0.040428221225738525
0.06863488256931305,0.045361146330833435,0.04810040816664696
0.17129766941070557,0.2055441290140152,0.10959794372320175
0.17897216975688934,0.08535555750131607,0.12058785557746887
0.15721626579761505,0.2451789826154709,0.23883305490016937
0.0953725278377533,0.11979544162750244,0.07594898343086243
0.1438361555337906,0.14591072499752045,0.06036141514778137
0.07679704576730728,0.12272671610116959,0.05999109148979187
0.0444522388279438,0.06898459047079086,0.03130801022052765
0.16477948427200317,0.12270040810108185,0.14131127297878265
0.09016884863376617,0.09738132357597351,0.08849644660949707
0.08913277834653854,0.096564881503582,0.09616831690073013
0.14056263864040375,0.1253531575202942,0.15874172747135162
0.031222587451338768,0.0498061440885067,0.023995237424969673
0.1434289813041687,0.05777820944786072,0.0739327147603035
0.14763183891773224,0.18653914332389832,0.006764284335076809
0.033363815397024155,0.03399907425045967,0.03143666684627533
0.17802990972995758,0.12535810470581055,0.10945300757884979
0.07242489606142044,0.05043554678559303,0.031583935022354126
0.10617032647132874,0.1321379840373993,0.11262688040733337
0.022411582991480827,0.10299191623926163,0.06793639808893204
0.11660385131835938,0.15364381670951843,0.08078514039516449
0.01879398711025715,0.02283381298184395,0.027764229103922844
0.018977699801325798,0.027872666716575623,0.028066739439964294
0.08371284604072571,0.08489171415567398,0.11054772138595581
0.09718799591064453,0.19816292822360992,0.1312052607536316
0.07964266091585159,0.11327937245368958,0.16037800908088684
0.09536829590797424,0.0825202614068985,0.12456145882606506
0.0990242138504982,0.06614205241203308,0.07290991395711899
0.07925225049257278,0.12457957118749619,0.10422788560390472
0.07825919985771179,0.054193612188100815,0.17871205508708954
0.09810897707939148,0.08218632638454437,0.14614337682724
0.09469586610794067,0.13368205726146698,0.04193369671702385
0.061079490929841995,0.031273502856492996,0.03821399435400963
0.17800800502300262,0.1127496063709259,0.12645578384399414
0.17512276768684387,0.2159731537103653,0.1962788999080658
0.14228671789169312,0.19291147589683533,0.3119437098503113
0.12190793454647064,0.3078097999095917,0.15728546679019928
0.15314540266990662,0.3218338191509247,0.20082858204841614
0.26723867654800415,0.3982287347316742,0.25654229521751404
0.31616225838661194,0.2167961150407791,0.27201879024505615
0.19147178530693054,0.11625562608242035,0.0878802090883255
0.13241739571094513,0.09306316077709198,0.020559724420309067
0.0010164252016693354,0.11203155666589737,0.08804543316364288
0.08198540657758713,0.0935291200876236,0.06198641285300255
0.061462048441171646,0.1146271601319313,0.1256624162197113
0.06508932262659073,0.0764445811510086,0.07453463971614838
0.09069869667291641,0.09989077597856522,0.07087462395429611
0.17801305651664734,0.1306033581495285,0.17256401479244232
0.1658198982477188,0.13523225486278534,0.09698793292045593
0.152130588889122,0.20254048705101013,0.13249382376670837
0.3122486472129822,0.2774283289909363,0.20981399714946747
0.14756901562213898,0.17127010226249695,0.2676143944263458
0.06760916858911514,0.07853009551763535,0.06758701801300049
0.04085451364517212,0.08393090963363647,0.02821352705359459
0.055487748235464096,0.05835361406207085,0.05456308275461197
0.22913013398647308,0.14484700560569763,0.08923184126615524
0.17639774084091187,0.11438719183206558,0.013528331182897091
0.08479726314544678,0.09352901577949524,0.03898945450782776
0.05559577792882919,0.15686282515525818,0.07802682369947433
0.2300747036933899,0.31950098276138306,0.428969144821167
0.34425589442253113,0.06628920882940292,0.193056121468544
0.1467389464378357,0.1684354692697525,0.14610029757022858
0.14584633708000183,0.14300888776779175,0.0770057812333107
0.11325288563966751,0.09259508550167084,0.041107941418886185
0.04858122766017914,0.09926839172840118,0.08164256066083908
0.13830633461475372,0.09184855967760086,0.1666780710220337
0.036449968814849854,0.05329272150993347,0.019259778782725334
0.12393849343061447,0.1107865646481514,0.09010227769613266
0.20462965965270996,0.28641992807388306,0.448959618806839
0.17954252660274506,0.09694342315196991,0.18869303166866302
0.37442874908447266,0.33006033301353455,0.3530992567539215
0.04401406645774841,0.11896684765815735,0.09657489508390427
0.12034839391708374,0.0445748008787632,0.04871606454253197
0.33234789967536926,0.20684927701950073,0.21934379637241364
0.30896010994911194,0.02801430970430374,0.10540331900119781
0.030567646026611328,0.003019824158400297,0.004013304598629475
0.01944900117814541,0.04351212456822395,0.07319995015859604
0.13305999338626862,0.23895028233528137,0.17344683408737183
0.11349578201770782,0.15607771277427673,0.0935564860701561
0.16609381139278412,0.0889146700501442,0.176303431391716
0.08341449499130249,0.06029053404927254,0.09604544937610626
0.14290256798267365,0.006786186248064041,0.0059532360173761845
0.028408603742718697,0.027974402531981468,0.11426057666540146
0.029619399458169937,0.018549907952547073,0.03452357277274132
0.01296543050557375,0.01361136231571436,0.010904533788561821
0.19521093368530273,0.14525212347507477,0.12312772870063782
0.09587449580430984,0.10245015472173691,0.0646493211388588
0.16581250727176666,0.1464717984199524,0.0931248813867569
0.10209600627422333,0.08955062180757523,0.07906617224216461
0.2028893530368805,0.06333941966295242,0.11397842317819595
0.335645467042923,0.07453129440546036,0.13550490140914917
0.27928635478019714,0.308016300201416,0.28511691093444824
0.21468201279640198,0.23742058873176575,0.21730419993400574
0.0016131317242980003,0.0047334362752735615,0.003887232393026352
0.06846446543931961,0.08226580172777176,0.11550971120595932
0.05553814768791199,0.05310291796922684,0.03737655654549599
0.04887120798230171,0.08136919140815735,0.07490535080432892
0.0986051931977272,0.10546360909938812,0.07395479083061218
0.1413722187280655,0.10796859860420227,0.11367540061473846
0.1908896118402481,0.24019403755664825,0.18403799831867218
0.06590280681848526,0.09201318770647049,0.1749613732099533
0.0952802374958992,0.066191665828228,0.02834702655673027
0.25982537865638733,0.3833606541156769,0.2937074899673462
0.24274182319641113,0.1493758261203766,0.13187287747859955
0.045213982462882996,0.09399430453777313,0.09419800341129303
0.1567092090845108,0.12778478860855103,0.13098733127117157
0.0876593366265297,0.11188478022813797,0.07138287276029587
0.06822472810745239,0.04111127182841301,0.1400180459022522
0.1541760265827179,0.18356235325336456,0.1742800623178482
0.13424408435821533,0.0692216008901596,0.11714497953653336
0.3879244923591614,0.4203631579875946,0.387805700302124
0.13906803727149963,0.14411725103855133,0.1458919793367386
0.2602646052837372,0.2892792522907257,0.2884458601474762
0.1751215159893036,0.1864914447069168,0.241448312997818
0.14917755126953125,0.10664191097021103,0.06209501251578331
0.1365843117237091,0.0851556584239006,0.13583147525787354
0.1612362414598465,0.25450828671455383,0.15451721847057343
0.24471810460090637,0.1782654970884323,0.16886673867702484
0.06351197510957718,0.07804369181394577,0.061669640243053436
0.08791182190179825,0.059320081025362015,0.1568749099969864
0.367937833070755,0.3255012631416321,0.27821868658065796
0.10636159777641296,0.292389452457428,0.24815471470355988
0.011281737126410007,0.005840609781444073,0.03334254026412964
0.08147288858890533,0.3280470669269562,0.11431380361318588
0.12489454448223114,0.21558131277561188,0.1613655984401703
0.11122236400842667,0.19966018199920654,0.1372172236442566
0.15652158856391907,0.11719375103712082,0.09907636791467667
0.24126532673835754,0.08883744478225708,0.11616101115942001
0.14601917564868927,0.1667463630437851,0.10321056842803955
0.15654818713665009,0.1281314194202423,0.17472006380558014
0.008756457827985287,0.033785924315452576,0.05558682978153229
0.11919058114290237,0.10090897232294083,0.033323705196380615
0.17320840060710907,0.23364195227622986,0.10262849181890488
0.10005882382392883,0.06527244299650192,0.10936649143695831
0.011066065169870853,0.01072766911238432,0.035424765199422836
0.011308965273201466,0.01672724261879921,0.06027602776885033
0.11444682627916336,0.0982208251953125,0.16315880417823792
0.13053081929683685,0.13265091180801392,0.10120605677366257
0.15365049242973328,0.10204806178808212,0.1045738235116005
0.09873266518115997,0.09680932015180588,0.10490260273218155
0.06961457431316376,0.03937660902738571,0.2230789214372635
0.21237397193908691,0.11163241416215897,0.17148318886756897
0.144426167011261,0.2894367277622223,0.28283920884132385
0.06346196681261063,0.07145100086927414,0.21049301326274872
0.04178917035460472,0.061889417469501495,0.08122000843286514
0.3059193193912506,0.06372381746768951,0.05936092510819435
0.031290069222450256,0.07494997978210449,0.014592192135751247
0.11218278855085373,0.10671623051166534,0.13767138123512268
0.0841032937169075,0.08812635391950607,0.15408563613891602
0.054324597120285034,0.03279261663556099,0.06774412840604782
0.1351846307516098,0.16132494807243347,0.1197495087981224
0.21582716703414917,0.19442321360111237,0.24909402430057526
0.11223698407411575,0.12284176796674728,0.15547996759414673
0.07326988875865936,0.10062037408351898,0.09876861423254013
0.06577721983194351,0.08011289685964584,0.060403019189834595
0.13916784524917603,0.10086406767368317,0.0804809033870697
0.02201703004539013,0.0195686686784029,0.02872045710682869
0.07944399118423462,0.05107074975967407,0.06550606340169907
0.06635009497404099,0.0684732124209404,0.073341503739357
0.06532981246709824,0.030891606584191322,0.03821418434381485
0.1273849755525589,0.14495621621608734,0.055544860661029816
0.2209058254957199,0.20049509406089783,0.2136269211769104
0.09855134785175323,0.14810864627361298,0.13812868297100067
0.23480603098869324,0.14551834762096405,0.22882969677448273
0.3050527274608612,0.2243664413690567,0.1941874921321869
0.16100671887397766,0.3006942570209503,0.38633638620376587
0.1989249736070633,0.24545294046401978,0.28440889716148376
0.33498072624206543,0.12761491537094116,0.19008521735668182
0.17299877107143402,0.3188958168029785,0.07468027621507645
0.24183054268360138,0.19094642996788025,0.197336807847023
0.2184288650751114,0.41445136070251465,0.25407490134239197
0.3252517879009247,0.19621625542640686,0.17061957716941833
0.10978575050830841,0.07185426354408264,0.10352134704589844
0.10612142086029053,0.027761539444327354,0.07052251696586609
0.12076938152313232,0.100281722843647,0.03515607491135597
0.07626333832740784,0.06291007250547409,0.03431975096464157
0.2133796364068985,0.1953330636024475,0.182571142911911
0.07328864932060242,0.06063884124159813,0.04328358173370361
0.13410785794258118,0.14732643961906433,0.2112463414669037
0.18840782344341278,0.13067403435707092,0.19393563270568848
0.11689186096191406,0.0761936828494072,0.0731530413031578
0.08990110456943512,0.053328268229961395,0.06545667350292206
0.17101994156837463,0.12504945695400238,0.08927054703235626
0.06371308863162994,0.09228102117776871,0.07404103875160217
0.13155871629714966,0.1399279534816742,0.194316565990448
0.10731324553489685,0.08079351484775543,0.07907188683748245
0.15402495861053467,0.12235499918460846,0.07368867844343185
0.15339289605617523,0.11666381359100342,0.13975292444229126
0.09165345877408981,0.07080971449613571,0.18905779719352722
0.19919389486312866,0.15447473526000977,0.14740760624408722
0.0067046890035271645,0.006172595079988241,0.0049825492314994335
0.06368158012628555,0.08847514539957047,0.044478438794612885
0.09486473351716995,0.06941410899162292,0.06756812334060669
0.08865433931350708,0.05674155801534653,0.07926754653453827
0.08842027187347412,0.09800063818693161,0.0979657918214798
0.14726899564266205,0.09521269798278809,0.14063481986522675
0.1318865865468979,0.1344597488641739,0.13392110168933868
0.0011350559070706367,0.001627409365028143,0.0037340079434216022
0.017229774966835976,0.012803219258785248,0.0076736812479794025
0.03835314139723778,0.0492134615778923,0.02287650853395462
0.07368461787700653,0.14913266897201538,0.030784286558628082
0.015800463035702705,0.07414934784173965,0.0345640704035759
0.008718455210328102,0.012383176013827324,0.02260938100516796
0.010591091588139534,0.02474801242351532,0.04471954330801964
0.15140262246131897,0.1783057600259781,0.16667623817920685
0.10588931292295456,0.11525087803602219,0.08430548012256622
0.10928750038146973,0.17776578664779663,0.12792280316352844
0.318815678358078,0.18552502989768982,0.3836340606212616
0.060967013239860535,0.12006842344999313,0.22628270089626312
0.36154887080192566,0.24520614743232727,0.17488908767700195
0.020942222326993942,0.09675835072994232,0.07019025832414627
0.2253146916627884,0.00991714745759964,0.1475864201784134
0.36460572481155396,0.09988933056592941,0.22678133845329285
0.15983353555202484,0.09312332421541214,0.06837508082389832
0.028785917907953262,0.17723727226257324,0.1737237423658371
0.083970807492733,0.21937575936317444,0.13882815837860107
0.29263633489608765,0.066953644156456,0.1047830581665039
0.05954795703291893,0.025151118636131287,0.01871911622583866
0.08103803545236588,0.13601675629615784,0.06539259105920792
0.25660771131515503,0.12169548869132996,0.36406075954437256
0.14230215549468994,0.17877137660980225,0.08158232271671295
0.2469538450241089,0.24683105945587158,0.27127712965011597
0.18818533420562744,0.12429767102003098,0.1400500237941742
0.053012046962976456,0.044508084654808044,0.10348884761333466
0.1752682477235794,0.12654010951519012,0.26795533299446106
0.1888350397348404,0.2551390528678894,0.22013336420059204
0.11283998191356659,0.1564130187034607,0.1625613570213318
0.06536931544542313,0.060066260397434235,0.10644493252038956
0.06083395704627037,0.14737999439239502,0.15235058963298798
0.21361416578292847,0.21889828145503998,0.18787099421024323
0.13409423828125,0.09777317941188812,0.03604081645607948
0.17783989012241364,0.055754851549863815,0.09417631477117538
0.25538358092308044,0.15591123700141907,0.17012538015842438
0.008919455111026764,0.019878525286912918,0.28677499294281006
0.10431540757417679,0.11213122308254242,0.18705713748931885
0.06295563280582428,0.17928320169448853,0.08580803871154785
0.028333483263850212,0.0935693085193634,0.026660552248358727
0.07837527245283127,0.10663695633411407,0.07504282891750336
0.4090955853462219,0.1561521738767624,0.3729023039340973
0.1370360553264618,0.0890282690525055,0.2426353394985199
0.19909904897212982,0.487007737159729,0.3098510801792145
0.40431836247444153,0.24023498594760895,0.39592480659484863
0.07742919772863388,0.18092355132102966,0.49256178736686707
0.16120605170726776,0.1277470886707306,0.2435014247894287
0.15283866226673126,0.1388659030199051,0.10833360254764557
0.08796769380569458,0.08540650457143784,0.06506500393152237
0.2649611532688141,0.15701070427894592,0.09329377859830856
0.07208838313817978,0.12739259004592896,0.14322586357593536
0.05649662762880325,0.06632973998785019,0.04317089915275574
0.11888479441404343,0.12692566215991974,0.04101673886179924
0.14288528263568878,0.23944474756717682,0.2517314851284027
0.03984706476330757,0.2197827398777008,0.010598457418382168
0.04085452854633331,0.0172897819429636,0.02450857125222683
0.023340556770563126,0.0271031204611063,0.3213961124420166
0.011632334440946579,0.012307063676416874,0.007770276162773371
0.005154893733561039,0.004677263088524342,0.015942241996526718
0.09196566790342331,0.1556897908449173,0.20538930594921112
0.07954389601945877,0.13636311888694763,0.06022266671061516
0.03980103135108948,0.07322043925523758,0.09650323539972305
0.198014497756958,0.446506530046463,0.29933661222457886
0.11112141609191895,0.16646264493465424,0.10903824120759964
0.18684682250022888,0.23330159485340118,0.2160111963748932
0.138105109333992,0.020415768027305603,0.06991888582706451
0.024895556271076202,0.12462364882230759,0.07401221245527267
0.15748529136180878,0.11065305769443512,0.19389303028583527
0.036033667623996735,0.05958111956715584,0.07567236572504044
0.16392621397972107,0.1476045548915863,0.0904296338558197
0.2884822487831116,0.2876514196395874,0.3432562053203583
0.22994297742843628,0.200295552611351,0.14336195588111877
0.14035041630268097,0.08185102790594101,0.05702177435159683
0.0856933668255806,0.11637245118618011,0.22323539853096008
0.21605050563812256,0.21805472671985626,0.2208535522222519
0.1307949274778366,0.1640026867389679,0.16062238812446594
0.23750589787960052,0.18839219212532043,0.36155176162719727
0.03482840210199356,0.05960700288414955,0.06399313360452652
0.12032154947519302,0.07595837861299515,0.07215842604637146
0.12411666661500931,0.17411811649799347,0.26248496770858765
0.1713377684354782,0.044610023498535156,0.06373658776283264
0.3247520327568054,0.031791940331459045,0.02454056777060032
0.46098241209983826,0.07110100984573364,0.2714613378047943
0.14706003665924072,0.1883603036403656,0.2238263189792633
0.23956987261772156,0.1570497304201126,0.16720764338970184
0.062329258769750595,0.175885871052742,0.10330911725759506
0.3078646659851074,0.5145336985588074,0.37283942103385925
0.23266857862472534,0.29434671998023987,0.2632807791233063
0.24206534028053284,0.2025027871131897,0.18865948915481567
0.16493390500545502,0.2531733810901642,0.13106238842010498
0.20325571298599243,0.12156105041503906,0.18616585433483124
0.09453524649143219,0.08808904886245728,0.095330610871315
0.22507722675800323,0.11965733766555786,0.17748472094535828
0.15914538502693176,0.15732242166996002,0.2028616964817047
0.13994987308979034,0.11557507514953613,0.19114480912685394
0.049003954976797104,0.1480720192193985,0.23764340579509735
0.12208091467618942,0.2681143879890442,0.16017113626003265
0.23939064145088196,0.1311592012643814,0.08939512073993683
0.031689222902059555,0.06934482604265213,0.03132233768701553
0.23902887105941772,0.09773070365190506,0.07850364595651627
0.004039596300572157,0.004897473845630884,0.003480836283415556
0.14705790579319,0.10545928031206131,0.08868957310914993
0.06894456595182419,0.031689610332250595,0.053539399057626724
0.1589575856924057,0.07064918428659439,0.1104743704199791
0.08526337891817093,0.08472837507724762,0.10106494277715683
0.11913631111383438,0.08661852031946182,0.18986594676971436
0.20282864570617676,0.18178611993789673,0.165177121758461
0.26942190527915955,0.14184361696243286,0.13862137496471405
0.055261168628931046,0.0741448700428009,0.1460668295621872
0.09480509907007217,0.11617670208215714,0.1510097086429596
0.28914666175842285,0.14389783143997192,0.18340229988098145
0.17708826065063477,0.14691762626171112,0.3377867639064789
0.23628848791122437,0.08018704503774643,0.17992325127124786
0.09767647832632065,0.13845878839492798,0.1938837468624115
0.0261688195168972,0.026239432394504547,0.1377912014722824
0.05351091921329498,0.09876473993062973,0.06539755314588547
0.2155199646949768,0.2123124897480011,0.12855857610702515
0.20822139084339142,0.2514074742794037,0.2826376259326935
0.18043427169322968,0.10042452067136765,0.1181146502494812
0.178168386220932,0.18470391631126404,0.16038671135902405
0.03534266725182533,0.0597187802195549,0.05100449174642563
0.11912284046411514,0.08746463805437088,0.21669630706310272
0.1427442878484726,0.041398610919713974,0.16449278593063354
0.3002268671989441,0.06638269126415253,0.020741088315844536
0.11546522378921509,0.061379630118608475,0.10628896206617355
0.034733597189188004,0.05225052312016487,0.08201991021633148
0.1567097008228302,0.31215131282806396,0.16396017372608185
0.18107496201992035,0.12523457407951355,0.2770922780036926
0.14576353132724762,0.1922471672296524,0.09766707569360733
0.07295782119035721,0.04529821500182152,0.06343863159418106
0.1733938306570053,0.187522292137146,0.2539941370487213
0.14513756334781647,0.12538892030715942,0.0931738093495369
0.15130506455898285,0.12342256307601929,0.25359639525413513
0.19871650636196136,0.18554772436618805,0.11768241226673126
0.1852417141199112,0.12802700698375702,0.17540834844112396
0.2815629839897156,0.22802545130252838,0.38921064138412476
0.031739600002765656,0.06797121465206146,0.03095579333603382
0.055754754692316055,0.05241050943732262,0.027547726407647133
0.10725749284029007,0.1914488822221756,0.12369313091039658
0.1343163102865219,0.14749844372272491,0.07498829066753387
0.11195123195648193,0.11289726197719574,0.03508920595049858
0.11382409930229187,0.0842587873339653,0.08018147945404053
0.026203103363513947,0.06267214566469193,0.02216416783630848
0.02577429637312889,0.023462757468223572,0.0372106097638607
0.43316948413848877,0.3346625864505768,0.34599292278289795
0.18826952576637268,0.07879739999771118,0.1570257991552353
0.18986102938652039,0.24263887107372284,0.11541321128606796
0.014380307868123055,0.02455846033990383,0.019978675991296768
0.014125147834420204,0.0021540578454732895,0.002089953515678644
0.05093415826559067,0.04921438917517662,0.16362443566322327
0.3935306966304779,0.2614341974258423,0.20931534469127655
0.11825957894325256,0.10123452544212341,0.16076284646987915
0.016214126721024513,0.03958842158317566,0.018780671060085297
0.04741242527961731,0.0991448387503624,0.06330228596925735
0.0465206541121006,0.04300408437848091,0.12820850312709808
0.18228095769882202,0.2921377420425415,0.14349591732025146
0.1558845043182373,0.19912630319595337,0.0998607873916626
0.2230582982301712,0.139023557305336,0.20002326369285583
0.19833728671073914,0.11951030045747757,0.22520969808101654
0.12686529755592346,0.15822814404964447,0.13622741401195526
0.3193286955356598,0.2189510017633438,0.22118011116981506
0.2618204355239868,0.3914491832256317,0.3540095090866089
0.017863135784864426,0.02658851630985737,0.05154285579919815
0.03500153124332428,0.20267555117607117,0.1421995311975479
0.40090662240982056,0.1653401255607605,0.11228583008050919
0.5100916624069214,0.36123260855674744,0.2349122166633606
0.020468922331929207,0.0707482099533081,0.02238394320011139
0.06437023729085922,0.06048477441072464,0.08234625309705734
0.04598821699619293,0.04796522110700607,0.04614084213972092
0.13397084176540375,0.1811293661594391,0.1662287414073944
0.09685619175434113,0.088387630879879,0.1413111686706543
0.06700456887483597,0.06742044538259506,0.12209194153547287
0.011465302668511868,0.013247446157038212,0.008746580220758915
0.200418621301651,0.5576563477516174,0.23781448602676392
0.06528452783823013,0.09061277657747269,0.062391724437475204
0.16529296338558197,0.053354475647211075,0.1055675595998764
0.10975940525531769,0.10426074266433716,0.11980783939361572
0.23355995118618011,0.18411648273468018,0.1546669900417328
0.1471993774175644,0.17065536975860596,0.15274909138679504
0.17856374382972717,0.20856048166751862,0.09931975603103638
0.16835379600524902,0.12119770795106888,0.1650567352771759
0.10831364244222641,0.08214066177606583,0.17396265268325806
0.06064596027135849,0.05654362589120865,0.22644354403018951
0.14515291154384613,0.18556825816631317,0.19064953923225403
0.042675409466028214,0.0747419148683548,0.08115091919898987
0.1149018257856369,0.10621988028287888,0.08764489740133286
0.03514265641570091,0.03577599674463272,0.0720004290342331
0.039225149899721146,0.03380617871880531,0.04397653043270111
0.09159749001264572,0.0701294019818306,0.07873175293207169
0.1336686909198761,0.12804503738880157,0.09478727728128433
0.03596186265349388,0.05393778160214424,0.061232078820466995
0.14701083302497864,0.08271514624357224,0.16101323068141937
0.10427915304899216,0.06597480922937393,0.22468839585781097
0.11330559104681015,0.13641321659088135,0.176321879029274
0.04312644526362419,0.03593260049819946,0.057277727872133255
0.09037363529205322,0.03939351812005043,0.13353846967220306
0.1015499159693718,0.19557203352451324,0.18320748209953308
0.04085797816514969,0.01964639686048031,0.037914082407951355
0.03091329336166382,0.201572448015213,0.007292959373444319
0.17389263212680817,0.40316811203956604,0.1962178498506546
0.14114612340927124,0.1107707992196083,0.08915131539106369
0.11497238278388977,0.13422128558158875,0.16287538409233093
0.2295706570148468,0.11623214930295944,0.08118706941604614
0.18936115503311157,0.17964297533035278,0.13032874464988708
0.11197800189256668,0.14018431305885315,0.04406148940324783
0.42251160740852356,0.265107661485672,0.20721572637557983
0.01211012527346611,0.026771321892738342,0.028838062658905983
0.1088484600186348,0.07797939330339432,0.13093538582324982
0.16332405805587769,0.095046766102314,0.23330391943454742
0.08691750466823578,0.061178598552942276,0.09213750064373016
0.1622699350118637,0.2302682250738144,0.09988610446453094
0.07466962188482285,0.06394067406654358,0.05195484682917595
0.2969186305999756,0.14506296813488007,0.1681777536869049
0.23180468380451202,0.2980513274669647,0.24120333790779114
0.05433604121208191,0.09773977845907211,0.12484808266162872
0.17006957530975342,0.12417986243963242,0.16996674239635468
0.03003186732530594,0.06944339722394943,0.15067008137702942
0.21433308720588684,0.08997473120689392,0.08802448213100433
0.10114271938800812,0.10979116708040237,0.14208467304706573
0.09901045262813568,0.1273154467344284,0.08999258279800415
0.24509039521217346,0.36656683683395386,0.26529407501220703
0.28952932357788086,0.1880924105644226,0.23003807663917542
0.21071726083755493,0.4040374457836151,0.12387239187955856
0.1838163137435913,0.03340037912130356,0.08944812417030334
0.04658690467476845,0.02997543103992939,0.029499880969524384
0.0819636732339859,0.1581682413816452,0.11369089037179947
0.14396534860134125,0.20796364545822144,0.2926313877105713
0.08323852717876434,0.12001048028469086,0.10699491947889328
0.020400162786245346,0.026646386831998825,0.03014257922768593
0.13516254723072052,0.08759518712759018,0.10657236725091934
0.01090198289602995,0.011112778447568417,0.02104075625538826
0.022626414895057678,0.04889727756381035,0.029164128005504608
0.06327646225690842,0.13756689429283142,0.09167315810918808
0.19753430783748627,0.1810629516839981,0.16234765946865082
0.2638871371746063,0.26361873745918274,0.28243738412857056
0.02262021414935589,0.03354847803711891,0.06019037589430809
0.3087970018386841,0.26494401693344116,0.2217564433813095
0.16586968302726746,0.13214728236198425,0.137379452586174
0.12766316533088684,0.10048995167016983,0.13516397774219513
0.007187579292804003,0.0026776399463415146,0.08224876970052719
0.19115909934043884,0.053850915282964706,0.045894257724285126
0.024798817932605743,0.02523716725409031,0.024173559620976448
0.10993480682373047,0.04299725964665413,0.16989339888095856
0.012082405388355255,0.03644666075706482,0.023731108754873276
0.1695367395877838,0.19757720828056335,0.17821060121059418
0.1268552541732788,0.22939839959144592,0.19042694568634033
0.06061393395066261,0.04352131858468056,0.07495279610157013
0.12074661254882812,0.19733986258506775,0.10506895184516907
0.13989363610744476,0.08125422149896622,0.2649342715740204
0.18234921991825104,0.2089255303144455,0.20476402342319489
0.1263442188501358,0.11507163941860199,0.2941664755344391
0.12682722508907318,0.22821415960788727,0.15442174673080444
0.11875821650028229,0.10054108500480652,0.22465960681438446
0.15735524892807007,0.09479279816150665,0.09175965934991837
0.08206260204315186,0.08694686740636826,0.1274474710226059
0.08992949873209,0.049529191106557846,0.05976540595293045
0.05710091069340706,0.09189649671316147,0.06684838980436325
0.03429241478443146,0.02820751816034317,0.017928507179021835
0.11950930953025818,0.17044326663017273,0.13773243129253387
0.0733100175857544,0.03739367797970772,0.09045246243476868
0.10139770060777664,0.1037391796708107,0.020643776282668114
0.05918540805578232,0.02909284271299839,0.019254084676504135
0.3473690152168274,0.23538082838058472,0.2700923681259155
0.16955448687076569,0.23896808922290802,0.22137050330638885
0.18998102843761444,0.09854138642549515,0.39014923572540283
0.19639402627944946,0.17471793293952942,0.23461858928203583
0.06721680611371994,0.05568742752075195,0.040374670177698135
0.0221763513982296,0.027532340958714485,0.01841888576745987
0.13723088800907135,0.10710441321134567,0.16273678839206696
0.1040504202246666,0.2207108736038208,0.33904001116752625
0.12227562814950943,0.22722482681274414,0.24212682247161865
0.056091584265232086,0.05393131822347641,0.06011737883090973
0.16428731381893158,0.13164949417114258,0.17919936776161194
0.06307133287191391,0.07116209715604782,0.02488863840699196
0.15375690162181854,0.12608090043067932,0.17882868647575378
0.1501215249300003,0.1272202879190445,0.08802275359630585
0.23372723162174225,0.11803851276636124,0.16428117454051971
0.16436895728111267,0.13039042055606842,0.22160178422927856
0.1475207805633545,0.13782909512519836,0.28007179498672485
0.22622494399547577,0.20391489565372467,0.32614555954933167
0.23498591780662537,0.12794147431850433,0.27647408843040466
0.1965869665145874,0.13530460000038147,0.1176963523030281
0.41847944259643555,0.27826744318008423,0.3229867219924927
0.19213740527629852,0.11385919898748398,0.11932359635829926
0.1908830851316452,0.24489237368106842,0.18836377561092377
0.2289169579744339,0.13744483888149261,0.17865373194217682
0.11638551950454712,0.11990487575531006,0.1750282645225525
0.08642807602882385,0.1501169502735138,0.06414438039064407
0.1822274774312973,0.28426337242126465,0.21532879769802094
0.1009950116276741,0.16445675492286682,0.10644033551216125
0.007648935541510582,0.007155725732445717,0.01609458215534687
0.03744572028517723,0.03681661933660507,0.028281986713409424
0.01745486631989479,0.008630668744444847,0.003204205073416233
0.13132214546203613,0.03750196099281311,0.04885513707995415
0.0529925599694252,0.12494853138923645,0.03246069699525833
0.1352023184299469,0.2917555570602417,0.19085700809955597
0.2564902901649475,0.22378256916999817,0.16165658831596375
0.158247709274292,0.045420337468385696,0.014926877804100513
0.10068162530660629,0.03051574155688286,0.019583318382501602
0.07642927020788193,0.11945559084415436,0.11758861690759659
0.06448881328105927,0.052837856113910675,0.149318665266037
0.15910443663597107,0.24576883018016815,0.15479472279548645
0.20703336596488953,0.23835335671901703,0.22179216146469116
0.041873637586832047,0.06920706480741501,0.025741325691342354
0.04173722490668297,0.02033132314682007,0.011512516997754574
0.08617956936359406,0.10993073880672455,0.13404278457164764
0.1751016080379486,0.17896562814712524,0.1655663400888443
0.04719638079404831,0.035979460924863815,0.02154248021543026
0.08674104511737823,0.07090896368026733,0.08657504618167877
0.20451797544956207,0.11391326785087585,0.1672671139240265
0.10703882575035095,0.11435135453939438,0.09749704599380493
0.18559277057647705,0.27377793192863464,0.17680418491363525
0.17154574394226074,0.2565329968929291,0.15450608730316162
0.08655969798564911,0.12028858065605164,0.06661681085824966
0.08654662221670151,0.07323998957872391,0.060233425348997116
0.04856414720416069,0.1870144158601761,0.022602472454309464
0.03716372698545456,0.046340763568878174,0.050443097949028015
0.011346807703375816,0.01135080587118864,0.010759304277598858
0.06460437178611755,0.016938457265496254,0.012213364243507385
0.22776871919631958,0.275328129529953,0.2350071221590042
0.20849668979644775,0.1718769073486328,0.22134874761104584
0.1310555338859558,0.06556221842765808,0.12447728216648102
0.10062890499830246,0.08730792254209518,0.16094152629375458
0.022883867844939232,0.023030901327729225,0.03913882374763489
0.059146199375391006,0.05232721567153931,0.03879748657345772
0.16525277495384216,0.18481047451496124,0.1573433130979538
0.21561932563781738,0.3001727759838104,0.19006668031215668
0.13685950636863708,0.17994160950183868,0.20065417885780334
0.08829610049724579,0.09417162835597992,0.07772650569677353
0.121773861348629,0.10638143867254257,0.12139881402254105
0.22898606956005096,0.18113958835601807,0.2209571897983551
0.0044943057000637054,0.0014981691492721438,0.0009610685519874096
0.17212310433387756,0.23540031909942627,0.18676501512527466
0.03269052505493164,0.08094997704029083,0.02433890849351883
0.11589305102825165,0.2604956030845642,0.3827185332775116
0.3178478479385376,0.1199396550655365,0.1668969690799713
0.05185648053884506,0.06422711163759232,0.05664920434355736
0.06430352479219437,0.09196733683347702,0.052923161536455154
0.13657626509666443,0.12188123166561127,0.32345765829086304
0.07512350380420685,0.0715159997344017,0.031058628112077713
0.1884072870016098,0.17232294380664825,0.1487019956111908
0.13440991938114166,0.10710854828357697,0.06489241123199463
0.1242097020149231,0.1095360815525055,0.1447683423757553
0.06937090307474136,0.07643945515155792,0.050101783126592636
0.11300243437290192,0.1394919902086258,0.1322014182806015
0.4318138659000397,0.17364424467086792,0.4026949107646942
0.18504849076271057,0.18519674241542816,0.13880538940429688
0.12533237040042877,0.07936805486679077,0.0985923483967781
0.016950460150837898,0.017997195944190025,0.005600606556981802
0.15178148448467255,0.20795205235481262,0.13960009813308716
0.06871267408132553,0.07786796241998672,0.16885079443454742
0.14523659646511078,0.10608454048633575,0.27970585227012634
0.18699324131011963,0.1610676795244217,0.19377736747264862
0.18119649589061737,0.12404564768075943,0.11390127241611481
0.08243317902088165,0.048726458102464676,0.1273835301399231
0.13889093697071075,0.1520359218120575,0.1967015117406845
0.037251994013786316,0.04492870345711708,0.06999627500772476
0.0686538964509964,0.1114114373922348,0.06319193542003632
0.22229993343353271,0.2524016201496124,0.11851789057254791
0.1627177745103836,0.2080092877149582,0.2199692279100418
0.1553223431110382,0.09753455966711044,0.0862894132733345
0.038574378937482834,0.031611330807209015,0.03526295721530914
0.0852450355887413,0.15923893451690674,0.16699425876140594
0.1680174022912979,0.14401504397392273,0.1366918683052063
0.07631154358386993,0.062120307236909866,0.03494197502732277
0.04434444382786751,0.12577569484710693,0.06307786703109741
0.297857403755188,0.16801296174526215,0.06857658177614212
0.0036419634707272053,0.005213573109358549,0.0033853144850581884
0.19440987706184387,0.1756315678358078,0.15977007150650024
0.18829379975795746,0.18334639072418213,0.18959297239780426
0.08069843053817749,0.06109005957841873,0.06258375942707062
0.17377470433712006,0.16350619494915009,0.07686933875083923
0.2402966022491455,0.30237749218940735,0.14072352647781372
0.053340014070272446,0.12952490150928497,0.15499770641326904
0.29448556900024414,0.13250407576560974,0.1500636339187622
0.2129082977771759,0.26648280024528503,0.22248531877994537
0.09774063527584076,0.4409838318824768,0.42179566621780396
0.01717519201338291,0.015254674479365349,0.023159002885222435
0.051598645746707916,0.024518009275197983,0.03786570951342583
0.30242425203323364,0.23451167345046997,0.17238086462020874
0.22954019904136658,0.2810859680175781,0.13464169204235077
0.17254245281219482,0.22894072532653809,0.18783734738826752
0.2577590048313141,0.2211311012506485,0.22220894694328308
0.03549102693796158,0.032021842896938324,0.02779957838356495
0.054144974797964096,0.075515516102314,0.03195948526263237
0.3272460699081421,0.22397789359092712,0.036220844835042953
0.05635171756148338,0.013707819394767284,0.032000623643398285
0.0860254243016243,0.10368458926677704,0.18292613327503204
0.08535243570804596,0.07053367048501968,0.06472969055175781
0.07143816351890564,0.04973751679062843,0.03715912252664566
0.34232622385025024,0.3338230848312378,0.37304407358169556
0.46073102951049805,0.38827863335609436,0.3397163152694702
0.052914660423994064,0.07107098400592804,0.18650846183300018
0.19501660764217377,0.16206872463226318,0.17377516627311707
0.034434735774993896,0.0882432609796524,0.03529232367873192
0.21131961047649384,0.15006129443645477,0.051961056888103485
0.12324721366167068,0.30536237359046936,0.21083810925483704
0.189182311296463,0.13133759796619415,0.25438424944877625
0.05620682239532471,0.05444400757551193,0.0817079171538353
0.20048226416110992,0.09704945236444473,0.10303927958011627
0.0608857162296772,0.04622863978147507,0.012725132517516613
0.20402009785175323,0.18603169918060303,0.18806734681129456
0.11602341383695602,0.11063147336244583,0.025566034018993378
0.21881964802742004,0.2446315437555313,0.15130487084388733
0.05942303314805031,0.0867081955075264,0.09494790434837341
0.029862677678465843,0.04920664057135582,0.11644106358289719
0.10919400304555893,0.08669059723615646,0.09038277715444565
0.2329919934272766,0.22260843217372894,0.2569549083709717
0.18720853328704834,0.1801956444978714,0.14122696220874786
0.10229320824146271,0.07046889513731003,0.0855148434638977
0.27784234285354614,0.4826207458972931,0.38754698634147644
0.12338747084140778,0.1343364268541336,0.13447894155979156
0.01869434304535389,0.014478866010904312,0.016050096601247787
0.08541961759328842,0.10837636142969131,0.11118853837251663
0.14658652245998383,0.1741507649421692,0.2380693405866623
0.15285001695156097,0.13320958614349365,0.10759046673774719
0.348257452249527,0.28170841932296753,0.34939253330230713
0.22358213365077972,0.11445982754230499,0.1232624426484108
0.1001381054520607,0.10418052971363068,0.09166514873504639
0.3115445375442505,0.18799950182437897,0.20229363441467285
0.13467594981193542,0.15026523172855377,0.0836726576089859
0.06933341920375824,0.08175470679998398,0.1374620795249939
0.1070166677236557,0.11498167365789413,0.1357022076845169
0.16067717969417572,0.0792694166302681,0.1339087188243866
0.12164180725812912,0.12576059997081757,0.13536536693572998
0.18746374547481537,0.08984560519456863,0.12657848000526428
0.15190033614635468,0.12367556244134903,0.09953399747610092
0.07474309951066971,0.09221184998750687,0.11199703812599182
0.2578881084918976,0.22069834172725677,0.3003799319267273
0.1149786189198494,0.08372717350721359,0.13171982765197754
0.13651908934116364,0.1387518048286438,0.1429966539144516
0.09472308307886124,0.09281235933303833,0.06810887157917023
0.1721750795841217,0.1727343201637268,0.12894581258296967
0.12034536898136139,0.27700719237327576,0.15653519332408905
0.2563493847846985,0.3569590449333191,0.49000969529151917
0.2205735146999359,0.40758004784584045,0.21847552061080933
0.2404019832611084,0.18287518620491028,0.15010401606559753
0.22877907752990723,0.1773124486207962,0.1867087334394455
0.07451891899108887,0.061955999583005905,0.09488032758235931
0.04911235347390175,0.11868635565042496,0.11771585047245026
0.15954309701919556,0.2175716608762741,0.1612880825996399
0.08900857716798782,0.08259685337543488,0.08374342322349548
0.08904732763767242,0.062258604913949966,0.08413314074277878
0.06648183614015579,0.08022782951593399,0.23560991883277893
0.05092750862240791,0.03905520960688591,0.09886188805103302
0.02361200749874115,0.014316274784505367,0.018488887697458267
0.086842842400074,0.05502649024128914,0.07492984086275101
0.023030109703540802,0.025186439976096153,0.018769577145576477
0.04187934845685959,0.01588067226111889,0.019786829128861427
0.1402786523103714,0.1659763902425766,0.10622728615999222
0.02144533209502697,0.039272308349609375,0.013367625884711742
0.04591676592826843,0.05696972832083702,0.05637446045875549
0.1042870506644249,0.17850500345230103,0.13083899021148682
0.09595157206058502,0.0902760699391365,0.11891338974237442
0.0878467708826065,0.10642141848802567,0.07906634360551834
0.17004825174808502,0.1563703864812851,0.10110531747341156
0.10304401814937592,0.08012638986110687,0.08871179074048996
0.20549920201301575,0.1483074277639389,0.1713404804468155
0.018559083342552185,0.02350076474249363,0.026132170110940933
0.23794032633304596,0.1705707460641861,0.2333703637123108
0.19636458158493042,0.14719991385936737,0.06754110753536224
0.22987912595272064,0.3408653140068054,0.3475690186023712
0.23324397206306458,0.18704868853092194,0.23647305369377136
0.436097651720047,0.17133213579654694,0.26430046558380127
0.22413817048072815,0.11787516623735428,0.14734132587909698
0.16729772090911865,0.16477856040000916,0.1297750174999237
0.1458858698606491,0.1310584992170334,0.09827897697687149
0.15028609335422516,0.2323702871799469,0.1580282598733902
0.2246163785457611,0.3304958641529083,0.24624153971672058
0.12887977063655853,0.08841601759195328,0.24176019430160522
0.13696840405464172,0.23195241391658783,0.11787188798189163
0.17643336951732635,0.09505847096443176,0.053892508149147034
0.16093392670154572,0.38736218214035034,0.1352146416902542
0.12572652101516724,0.028207911178469658,0.010412928648293018
0.016849296167492867,0.019037242978811264,0.017375987023115158
0.06414571404457092,0.15557238459587097,0.0622064433991909
0.018973911181092262,0.022777900099754333,0.05429409444332123
0.0033497377298772335,0.0023919465020298958,0.0017407841514796019
0.015680743381381035,0.009782237000763416,0.0054067098535597324
0.10811177641153336,0.08149988204240799,0.02659779042005539
0.022643500939011574,0.03536882996559143,0.03746404871344566
0.095240019261837,0.1268521249294281,0.04381507262587547
0.33941760659217834,0.32867616415023804,0.2417488694190979
0.37556201219558716,0.36850157380104065,0.36004719138145447
0.2882251441478729,0.2557283043861389,0.2538905143737793
0.29074764251708984,0.2556239068508148,0.24894088506698608
0.047416526824235916,0.11446227878332138,0.2710830569267273
0.12393446266651154,0.26045116782188416,0.18866828083992004
0.07264533638954163,0.040189094841480255,0.08731251955032349
0.21342138946056366,0.12130673974752426,0.12338463962078094
0.14685775339603424,0.13493818044662476,0.12702512741088867
0.08525650948286057,0.07904849201440811,0.059060610830783844
0.028827941045165062,0.03220846503973007,0.024681350216269493
0.09373612701892853,0.0629672259092331,0.07596226781606674
0.15080291032791138,0.17718420922756195,0.12932154536247253
0.05403301864862442,0.1842740774154663,0.08655451983213425
0.18781553208827972,0.05373411625623703,0.1218232810497284
0.023137465119361877,0.019831707701086998,0.023676207289099693
0.144423708319664,0.09430374205112457,0.008963738568127155
0.07464193552732468,0.04949727654457092,0.07091210037469864
0.007077343296259642,0.008000144734978676,0.002336116274818778
0.04143572971224785,0.04525390639901161,0.0676826685667038
0.13966874778270721,0.20535168051719666,0.1310800462961197
0.1482045203447342,0.039473481476306915,0.10544552654027939
0.18323859572410583,0.1553627848625183,0.09849554300308228
0.19554276764392853,0.12162408977746964,0.05266717076301575
0.09464719146490097,0.05349797382950783,0.0642746090888977
0.11421484500169754,0.21649783849716187,0.20662368834018707
0.018347740173339844,0.14666704833507538,0.03612757846713066
0.15572594106197357,0.12406069785356522,0.11657102406024933
0.1867838203907013,0.03617965057492256,0.044037770479917526
0.20890429615974426,0.298405259847641,0.38749974966049194
0.16756756603717804,0.12150605767965317,0.3270367383956909
0.14486034214496613,0.15464302897453308,0.06639892607927322
0.0868670865893364,0.10130002349615097,0.09782981127500534
0.09041886031627655,0.16602809727191925,0.08260089159011841
0.006220235023647547,0.031140370294451714,0.008770698681473732
0.05015463009476662,0.03414623439311981,0.05369384586811066
0.005952281877398491,0.005356447771191597,0.008252302184700966
0.30212104320526123,0.3429085612297058,0.3239665627479553
0.31730955839157104,0.10209853947162628,0.21890869736671448
0.032349202781915665,0.01715216599404812,0.020413467660546303
0.06463736295700073,0.05248844251036644,0.027904754504561424
0.037800636142492294,0.15194770693778992,0.03375973552465439
0.14579781889915466,0.33393165469169617,0.18081143498420715
0.11704625189304352,0.09178902208805084,0.035438623279333115
0.2444579154253006,0.22820651531219482,0.3089790940284729
0.20833337306976318,0.25721219182014465,0.2193509191274643
0.10129145532846451,0.04164871945977211,0.050828758627176285
0.02706674300134182,0.061864323914051056,0.06500966101884842
0.1655268371105194,0.17966613173484802,0.09806723147630692
0.15289194881916046,0.08191437274217606,0.09683550894260406
0.11993559449911118,0.3633144497871399,0.2213892787694931
0.057149484753608704,0.0663982480764389,0.12350722402334213
0.1472470760345459,0.15751801431179047,0.34547969698905945
0.05856786668300629,0.09313224256038666,0.11186916381120682
0.2729629576206207,0.30133557319641113,0.20833799242973328
0.2256205677986145,0.16220664978027344,0.10275191068649292
0.11572764068841934,0.11614935845136642,0.12134294211864471
0.05071407929062843,0.03126007691025734,0.03114762343466282
0.21643786132335663,0.24686644971370697,0.40550824999809265
0.20255230367183685,0.1755991280078888,0.12364096194505692
0.1251036524772644,0.28356748819351196,0.133363276720047
0.7145167589187622,0.42510929703712463,0.17309363186359406
0.039493631571531296,0.1411801427602768,0.09031461179256439
0.06671999394893646,0.0322551503777504,0.09932874143123627
0.29060131311416626,0.35259610414505005,0.24594542384147644
0.010247340425848961,0.00545232929289341,0.010746805928647518
0.030595146119594574,0.13865216076374054,0.24836067855358124
0.2171684056520462,0.17492423951625824,0.16045640408992767
0.07988414168357849,0.10859609395265579,0.18010440468788147
0.07966532558202744,0.10813609510660172,0.07081478834152222
0.18551070988178253,0.10711897164583206,0.25264403223991394
0.161977618932724,0.11804678291082382,0.24341128766536713
0.13151416182518005,0.10628866404294968,0.1528453826904297
0.23203134536743164,0.19163833558559418,0.28500375151634216
0.09163148701190948,0.11466465145349503,0.1348239630460739
0.13540667295455933,0.21553531289100647,0.08293737471103668
0.08206867426633835,0.08930335193872452,0.07336123287677765
0.15921097993850708,0.10812505334615707,0.08408522605895996
0.08873865008354187,0.09288372844457626,0.14739908277988434
0.17750659584999084,0.1712239682674408,0.12276218086481094
0.06255558133125305,0.14642037451267242,0.04227269068360329
0.10165052115917206,0.08290489763021469,0.08002301305532455
0.01661897450685501,0.028681103140115738,0.14035555720329285
0.2103780210018158,0.24719659984111786,0.21494576334953308
0.1754082292318344,0.18821169435977936,0.12429265677928925
0.38856014609336853,0.2928831875324249,0.42085039615631104
0.15733614563941956,0.15423090755939484,0.22432321310043335
0.1800989955663681,0.1114591658115387,0.10545742511749268
0.24915866553783417,0.12883898615837097,0.19353622198104858
0.14931116998195648,0.1886400580406189,0.11174654960632324
0.10803958028554916,0.1777929961681366,0.1436651349067688
0.14605994522571564,0.10287419706583023,0.13284610211849213
0.12882918119430542,0.14019012451171875,0.1470581591129303
0.10478296875953674,0.18447788059711456,0.015134736895561218
0.053928617388010025,0.04439717158675194,0.05827576667070389
0.14751754701137543,0.07871682941913605,0.06318597495555878
0.031892769038677216,0.03425939008593559,0.06152355298399925
0.24247558414936066,0.22144216299057007,0.21799331903457642
0.1500120311975479,0.10419171303510666,0.09496013075113297
0.23062896728515625,0.16611704230308533,0.13793274760246277
0.2453719526529312,0.2224770486354828,0.13761988282203674
0.02638566866517067,0.026938168331980705,0.08083367347717285
0.05916491150856018,0.03399354964494705,0.07012414187192917
0.03287843242287636,0.012181038036942482,0.1516333818435669
0.057358551770448685,0.039337702095508575,0.15465080738067627
0.019252602010965347,0.11606507748365402,0.05801655724644661
0.008175274357199669,0.00902610458433628,0.08253487944602966
0.16308310627937317,0.12264665961265564,0.14478853344917297
0.11587371677160263,0.13289578258991241,0.15463919937610626
0.19782376289367676,0.2543984651565552,0.2460976243019104
0.04513007774949074,0.210380420088768,0.03561098128557205
0.2840111255645752,0.30693480372428894,0.21592794358730316
0.18128637969493866,0.34410107135772705,0.0402492918074131
0.21777765452861786,0.08779162913560867,0.16443249583244324
0.2122579663991928,0.1779332011938095,0.11176825314760208
0.19575124979019165,0.14505024254322052,0.3557465672492981
0.13958430290222168,0.11114204674959183,0.22795197367668152
0.1643248051404953,0.16742999851703644,0.22690141201019287
0.045797478407621384,0.15051932632923126,0.15580542385578156
0.30973291397094727,0.22943218052387238,0.2362373322248459
0.07728353887796402,0.11719771474599838,0.1192210465669632
0.09722396731376648,0.19840361177921295,0.1530662477016449
0.0726684182882309,0.07184997200965881,0.10218444466590881
0.11370423436164856,0.1922641545534134,0.17201901972293854
0.06806866824626923,0.06920494139194489,0.090542733669281
0.13296864926815033,0.19708721339702606,0.11617932468652725
0.030975112691521645,0.04724965989589691,0.046625081449747086
0.21792756021022797,0.24018210172653198,0.14776074886322021
0.2168332189321518,0.15509875118732452,0.16960793733596802
0.08562693744897842,0.05324775353074074,0.09097790718078613
0.09422218799591064,0.07241681218147278,0.0670723021030426
0.07633966952562332,0.08699990063905716,0.05336776003241539
0.018883533775806427,0.038674481213092804,0.01927066408097744
0.0055946530774235725,0.003443657187744975,0.0034331365022808313
0.1553928107023239,0.1355489194393158,0.14756892621517181
0.11640092730522156,0.12033625692129135,0.13025429844856262
0.18667124211788177,0.17583949863910675,0.1638909876346588
0.21190211176872253,0.23710933327674866,0.1424712836742401
0.16042454540729523,0.24567270278930664,0.18714289367198944
0.131691575050354,0.15809033811092377,0.18060803413391113
0.01832864247262478,0.014370637014508247,0.023745454847812653
0.05757087096571922,0.11879033595323563,0.08110285550355911
0.04092136397957802,0.02374109998345375,0.07511703670024872
0.07330319285392761,0.1938232183456421,0.39350324869155884
0.1118670403957367,0.2052263468503952,0.14497600495815277
0.1405785232782364,0.17248037457466125,0.1856910139322281
0.12250020354986191,0.09252084791660309,0.06786135584115982
0.12280850857496262,0.13164395093917847,0.22497493028640747
0.16724489629268646,0.11419807374477386,0.1636243313550949
0.16752880811691284,0.39144930243492126,0.2641936242580414
0.11548376828432083,0.06496790796518326,0.061224427074193954
0.0069677093997597694,0.0064876931719481945,0.009418636560440063
0.01013860758394003,0.012934583239257336,0.006717706564813852
0.17921634018421173,0.15241628885269165,0.18221038579940796
0.23714642226696014,0.07905440777540207,0.08593247085809708
0.04987330362200737,0.0584464929997921,0.07689604163169861
0.07811088114976883,0.07789790630340576,0.08451893925666809
0.03815208375453949,0.021529333665966988,0.024943094700574875
0.06870771199464798,0.06117662787437439,0.10742681473493576
0.09133749455213547,0.09133082628250122,0.281293123960495
0.022903187200427055,0.04142187908291817,0.013764041475951672
0.2500712275505066,0.10559359192848206,0.10978108644485474
0.2746987044811249,0.2648584544658661,0.21481387317180634
0.08875447511672974,0.10372378677129745,0.08892524987459183
0.1254238784313202,0.1950271874666214,0.12066856026649475
0.09110073745250702,0.07643147557973862,0.10677307844161987
0.13739511370658875,0.10001544654369354,0.15593302249908447
0.19598767161369324,0.18774549663066864,0.22023797035217285
0.22819693386554718,0.15971466898918152,0.18239852786064148
0.24472282826900482,0.1856195628643036,0.3295595645904541
0.20678937435150146,0.2376745045185089,0.2103208303451538
0.12150874733924866,0.12473125010728836,0.15632888674736023
0.22596865892410278,0.20892134308815002,0.1466497927904129
0.12491467595100403,0.11876077204942703,0.11233632266521454
0.18515245616436005,0.23426976799964905,0.26535049080848694
0.20200368762016296,0.19920775294303894,0.11044804751873016
0.1296159327030182,0.07392504811286926,0.06299615651369095
0.001502780127339065,0.0011075466172769666,0.0026542714331299067
0.07299712300300598,0.06753828376531601,0.05884828791022301
0.14606034755706787,0.10570869594812393,0.1629510074853897
0.06693907082080841,0.13510195910930634,0.08849643170833588
0.18146587908267975,0.1470579206943512,0.12085654586553574
0.13080579042434692,0.06102805957198143,0.11110897362232208
0.06253307312726974,0.0815124362707138,0.10080327093601227
0.06743020564317703,0.15774871408939362,0.052629947662353516
0.08371081948280334,0.08075814694166183,0.08229926973581314
0.2885652184486389,0.18231062591075897,0.16849078238010406
0.26709121465682983,0.1343955546617508,0.3005891740322113
0.05031014233827591,0.06857465952634811,0.05202063173055649
0.0725187361240387,0.08294174075126648,0.09802214056253433
0.010600957088172436,0.01013919711112976,0.011696874164044857
0.03783002495765686,0.034703031182289124,0.045607078820466995
0.19659119844436646,0.15427972376346588,0.13590680062770844
0.10727480053901672,0.022426236420869827,0.04469652101397514
0.12812700867652893,0.07053172588348389,0.07780968397855759
0.06554173678159714,0.08750063925981522,0.07258431613445282
0.37524449825286865,0.09748227894306183,0.25927650928497314
0.22297975420951843,0.16449902951717377,0.13118760287761688
0.053256262093782425,0.11528974771499634,0.09498079866170883
0.3330114781856537,0.1942983865737915,0.1471605747938156
0.23823989927768707,0.06965544074773788,0.08976524323225021
0.15255869925022125,0.048804283142089844,0.153302863240242
0.09137563407421112,0.059878066182136536,0.03854522854089737
0.0706808790564537,0.1408199667930603,0.30741921067237854
0.11141844093799591,0.1424378901720047,0.3310168385505676
0.06679484248161316,0.050619956105947495,0.0673605278134346
0.11787830293178558,0.2166225016117096,0.17881335318088531
0.013882323168218136,0.034613970667123795,0.006457486189901829
0.04310765489935875,0.017881806939840317,0.015486270189285278
0.1745249181985855,0.26440778374671936,0.13176678121089935
0.12103186547756195,0.11545208841562271,0.09405428916215897
0.04115815833210945,0.0793275460600853,0.037916067987680435
0.11062713712453842,0.05173821747303009,0.059879906475543976
0.05222858116030693,0.06871700286865234,0.049383264034986496
0.04140086844563484,0.01909719593822956,0.09891697019338608
0.12173483520746231,0.04459383338689804,0.02842024341225624
0.04324231669306755,0.08064576983451843,0.027832724153995514
0.052009113132953644,0.30660417675971985,0.142620250582695
0.058933109045028687,0.06931258738040924,0.09778697043657303
0.04588594660162926,0.05458435043692589,0.011441245675086975
0.08449704200029373,0.08049576729536057,0.08218657970428467
0.054085299372673035,0.02688954584300518,0.021108444780111313
0.17843212187290192,0.16405437886714935,0.07926313579082489
0.010334369726479053,0.009931812062859535,0.1796496957540512
0.014893804676830769,0.04008268937468529,0.027529669925570488
0.059404950588941574,0.07153753936290741,0.10195571929216385
0.06414760649204254,0.10904146730899811,0.06459619849920273
0.03568023070693016,0.07789444923400879,0.02139277011156082
0.15000435709953308,0.03243400529026985,0.048258792608976364
0.048619817942380905,0.01918109506368637,0.1608225554227829
0.1295953094959259,0.14701689779758453,0.11230581253767014
0.1298704594373703,0.12453699856996536,0.09710022807121277
0.12055642902851105,0.24266231060028076,0.31033003330230713
0.1322379857301712,0.13695184886455536,0.09739095717668533
0.2795701324939728,0.12046036124229431,0.1368853598833084
0.22305859625339508,0.16197843849658966,0.2627970576286316
0.17746149003505707,0.19712412357330322,0.40321436524391174
0.1460638791322708,0.11573951691389084,0.11841336637735367
0.17476382851600647,0.21855658292770386,0.2810705304145813
0.18336492776870728,0.1978345364332199,0.28763923048973083
0.09211999177932739,0.08543660491704941,0.024656949564814568
0.12243013828992844,0.07438696175813675,0.03400809317827225
0.20483621954917908,0.030092939734458923,0.01674770750105381
0.10482300072908401,0.1025761142373085,0.2298397719860077
0.0648355484008789,0.05424262583255768,0.14050915837287903
0.03570673242211342,0.14299897849559784,0.03319363668560982
0.09058763831853867,0.13786345720291138,0.09249705076217651
0.12938140332698822,0.15516604483127594,0.13435684144496918
0.14848697185516357,0.13821667432785034,0.14671754837036133
0.24250428378582,0.4562205374240875,0.3496020436286926
0.14700163900852203,0.13251471519470215,0.18988223373889923
0.2946632504463196,0.3152047097682953,0.22379042208194733
0.1848517805337906,0.14048562943935394,0.32905927300453186
0.0385780930519104,0.017410365864634514,0.028453906998038292
0.21347275376319885,0.330998033285141,0.16149204969406128
0.40960660576820374,0.2624269425868988,0.3141440749168396
0.09348400682210922,0.08571725338697433,0.18520189821720123
0.15092810988426208,0.2781042456626892,0.3381496071815491
0.27592241764068604,0.3153703212738037,0.22364221513271332
0.10546674579381943,0.16652752459049225,0.17064914107322693
0.07330114394426346,0.06777641922235489,0.035623013973236084
0.09696193039417267,0.08246951550245285,0.1465793401002884
0.1281798928976059,0.1301163285970688,0.12190239131450653
0.11598154902458191,0.131500706076622,0.1340421438217163
0.10378892719745636,0.10582417994737625,0.21584707498550415
0.09994135797023773,0.11555689573287964,0.06356431543827057
0.22025439143180847,0.12049246579408646,0.10003769397735596
0.2108946442604065,0.2240898162126541,0.2505578100681305
0.14824046194553375,0.18897078931331635,0.1285489797592163
0.12724187970161438,0.08499155938625336,0.13510309159755707
0.03180069848895073,0.059781014919281006,0.023627109825611115
0.019154367968440056,0.03489335998892784,0.018783222883939743
0.10862158238887787,0.07646746188402176,0.37834838032722473
0.23166903853416443,0.20656606554985046,0.1628352552652359
0.1940487176179886,0.23220129311084747,0.19923000037670135
0.14079193770885468,0.1848594695329666,0.07331108301877975
0.11457405239343643,0.11399713903665543,0.1416371464729309
0.3885352313518524,0.34198054671287537,0.297844797372818
0.03043007291853428,0.021730201318860054,0.014883463270962238
0.044528424739837646,0.05021990090608597,0.051360681653022766
0.3387448191642761,0.2642456889152527,0.3760240375995636
0.09877447038888931,0.10332861542701721,0.13695403933525085
0.1400744765996933,0.2605580687522888,0.25308409333229065
0.14859241247177124,0.13013121485710144,0.19139598309993744
0.11931483447551727,0.13686731457710266,0.1060456782579422
0.07440895587205887,0.08089686185121536,0.15184129774570465
0.11997707188129425,0.12380354851484299,0.15874868631362915
0.278073787689209,0.1893310397863388,0.15491943061351776
0.45207634568214417,0.1714683324098587,0.07365596294403076
0.1737215369939804,0.12200462073087692,0.13450756669044495
0.3012485206127167,0.1524290293455124,0.19396145641803741
0.15792246162891388,0.14214996993541718,0.1996404528617859
0.140775665640831,0.19484937191009521,0.1623135358095169
0.13115297257900238,0.1903151422739029,0.17731715738773346
0.12503746151924133,0.14493580162525177,0.08567676693201065
0.20074373483657837,0.16795392334461212,0.1971287727355957
0.13510525226593018,0.13806603848934174,0.11695419251918793
0.04793606698513031,0.037946153432130814,0.04170793667435646
0.10366535186767578,0.14930543303489685,0.11651337891817093
0.3331814110279083,0.21532833576202393,0.193660706281662
0.10090810805559158,0.025824563577771187,0.020443959161639214
0.060350753366947174,0.026494786143302917,0.0846688374876976
0.06595483422279358,0.10901736468076706,0.03866764158010483
0.0284771416336298,0.028280263766646385,0.032540250569581985
0.0772465392947197,0.07918482273817062,0.09222522377967834
0.08375993371009827,0.18825885653495789,0.07912753522396088
0.1625053733587265,0.16555255651474,0.060914669185876846
0.35798975825309753,0.3105742633342743,0.35953181982040405
0.2813820540904999,0.20859423279762268,0.372224360704422
0.15349701046943665,0.32201680541038513,0.21195118129253387
0.09907551109790802,0.06008534878492355,0.09260239452123642
0.2571359872817993,0.1771777719259262,0.2964957058429718
0.06789898872375488,0.0928167849779129,0.06341339647769928
0.08887398988008499,0.09433027356863022,0.12367532402276993
0.21060806512832642,0.3433825671672821,0.1313508301973343
0.08933203667402267,0.06934698671102524,0.05024665594100952
0.022468097507953644,0.03526783734560013,0.048030730336904526
0.10730060935020447,0.1464966982603073,0.0974934846162796
0.1416022926568985,0.0921783372759819,0.08276200294494629
0.019664855673909187,0.16261370480060577,0.015073863789439201
0.017263220623135567,0.01930689625442028,0.020286669954657555
0.18855053186416626,0.14240145683288574,0.24171088635921478
0.04492104798555374,0.07771986722946167,0.10982552915811539
0.1820223182439804,0.26074063777923584,0.2118426114320755
0.04875287786126137,0.060004934668540955,0.11545538902282715
0.1924210488796234,0.1493971198797226,0.15180711448192596
0.0021167173981666565,0.00036693381844088435,0.0009484164766035974
0.02056914195418358,0.05005042254924774,0.03920202702283859
0.011035696603357792,0.11587623506784439,0.3563917875289917
0.031933121383190155,0.04760449007153511,0.024679118767380714
0.017423072829842567,0.03403971344232559,0.03886967524886131
0.13870514929294586,0.12091996520757675,0.12572342157363892
0.09453035145998001,0.07498575747013092,0.1461486518383026
0.10740166157484055,0.08444254100322723,0.12637613713741302
0.16504503786563873,0.17172600328922272,0.17114995419979095
0.3245714008808136,0.5848903656005859,0.32557418942451477
0.03437255695462227,0.04325475916266441,0.04184209555387497
0.2662278413772583,0.23151572048664093,0.12596800923347473
0.20232591032981873,0.2263178527355194,0.4021594226360321
0.035983871668577194,0.045208267867565155,0.015278884209692478
0.06359580904245377,0.03218945860862732,0.027146346867084503
0.09491022676229477,0.19635941088199615,0.08373045176267624
0.21893711388111115,0.14143188297748566,0.1595407873392105
0.08900634944438934,0.0912281945347786,0.08653036504983902
0.02352788858115673,0.027050068601965904,0.03790387138724327
0.08586888015270233,0.08945228904485703,0.07489524781703949
0.048497624695301056,0.1001816913485527,0.12148985266685486
0.05105428025126457,0.06375817209482193,0.10008180886507034
0.12049674987792969,0.2952081263065338,0.4027876555919647
0.38733893632888794,0.26818516850471497,0.1444457620382309
0.04412154108285904,0.038134898990392685,0.03729601204395294
0.3487890958786011,0.519313395023346,0.40319520235061646
0.07380054146051407,0.11093544960021973,0.12206415086984634
0.03704608604311943,0.046835869550704956,0.04523215815424919
0.03644901514053345,0.029383782297372818,0.0637173131108284
0.01913619227707386,0.0180754903703928,0.020051181316375732
0.05463552102446556,0.017170818522572517,0.13324065506458282
0.12079168111085892,0.05305519700050354,0.07581168413162231
0.05752822756767273,0.05090929567813873,0.05629813298583031
0.1251768320798874,0.13491739332675934,0.14544491469860077
0.15640679001808167,0.2693205177783966,0.20131057500839233
0.015063624829053879,0.008078228682279587,0.048369694501161575
0.1643761396408081,0.18260443210601807,0.1849593073129654
0.20954686403274536,0.26334303617477417,0.31397297978401184
0.1548779457807541,0.13383367657661438,0.1518765389919281
0.1799284964799881,0.10065937042236328,0.13496047258377075
0.12075067311525345,0.1861535608768463,0.20358678698539734
0.1941177397966385,0.06933599710464478,0.13028974831104279
0.41584596037864685,0.2563309967517853,0.38852426409721375
0.18860243260860443,0.23434337973594666,0.12601755559444427
0.007849069312214851,0.009699536487460136,0.11928975582122803
0.10410261899232864,0.313080370426178,0.13126546144485474
0.149496927857399,0.2906707227230072,0.12680405378341675
0.07760845869779587,0.318296879529953,0.19681507349014282
0.1215742751955986,0.270832359790802,0.14842678606510162
0.10011988133192062,0.11804655939340591,0.13039584457874298
0.1190207228064537,0.1830933839082718,0.19596539437770844
0.23091541230678558,0.1822430044412613,0.08764966577291489
0.05676421895623207,0.18840131163597107,0.18504086136817932
0.15773935616016388,0.03909313678741455,0.07651960104703903
0.14470545947551727,0.06591333448886871,0.10254614055156708
0.022733261808753014,0.030351197347044945,0.03172138333320618
0.015834979712963104,0.017644157633185387,0.01650526002049446
0.36155611276626587,0.4001114070415497,0.3623875379562378
0.2850021421909332,0.22442986071109772,0.2578725516796112
0.16851507127285004,0.08449223637580872,0.0622677318751812
0.26928386092185974,0.17884089052677155,0.21047550439834595
0.1644434928894043,0.2577403783798218,0.17056149244308472
0.09503199905157089,0.060924410820007324,0.08853595703840256
0.06370547413825989,0.16587117314338684,0.15597237646579742
0.16267718374729156,0.06889056414365768,0.0971517488360405
0.1418544054031372,0.11434636265039444,0.24483633041381836
0.2646346092224121,0.16069531440734863,0.21227657794952393
0.14607767760753632,0.10520020872354507,0.08089197427034378
0.07246321439743042,0.10991759598255157,0.07729429751634598
0.05645610764622688,0.18562738597393036,0.12254638969898224
0.1592620462179184,0.18805311620235443,0.20594410598278046
0.11773037910461426,0.06041910871863365,0.11962191760540009
0.11475686728954315,0.05777852609753609,0.09071161597967148
0.025620143860578537,0.019327595829963684,0.04495954513549805
0.300720751285553,0.4116314649581909,0.2910599410533905
0.028454137966036797,0.0582740493118763,0.016192231327295303
0.008769264444708824,0.030095020309090614,0.012564001604914665
0.05081363394856453,0.014579327777028084,0.018915098160505295
0.10284918546676636,0.049070294946432114,0.05940767750144005
0.2837337255477905,0.1489512026309967,0.09790842235088348
0.20181286334991455,0.1403251737356186,0.10436888039112091
0.0478389598429203,0.15874746441841125,0.13514268398284912
0.0343964546918869,0.023763306438922882,0.02977512590587139
0.04260987788438797,0.04316389933228493,0.03740149736404419
0.12690666317939758,0.0818304568529129,0.1567547470331192
0.10232765227556229,0.14942891895771027,0.050934504717588425
0.20228548347949982,0.15181179344654083,0.32163500785827637
0.1116369217634201,0.09013960510492325,0.13156867027282715
0.2420385777950287,0.11037858575582504,0.12351609766483307
0.0905761867761612,0.1078442633152008,0.13381430506706238
0.10453039407730103,0.44280806183815,0.20201757550239563
0.33928433060646057,0.3579076826572418,0.29063767194747925
0.2183770090341568,0.20873484015464783,0.05163063853979111
0.22194252908229828,0.11479642987251282,0.05036544054746628
0.18163587152957916,0.14165273308753967,0.16398850083351135
0.0636289119720459,0.06261439621448517,0.11976628005504608
0.10657099634408951,0.11876817047595978,0.17704440653324127
0.16132518649101257,0.08459130674600601,0.047734204679727554
0.047946102917194366,0.10745827853679657,0.17266571521759033
0.060134537518024445,0.15286578238010406,0.13314059376716614
0.1707637757062912,0.0820811316370964,0.1743706464767456
0.3419831097126007,0.2544803023338318,0.41821739077568054
0.02963334694504738,0.1974106729030609,0.07464683800935745
0.14721611142158508,0.07401782274246216,0.07130947709083557
0.06806060671806335,0.0367177277803421,0.08976620435714722
0.18127372860908508,0.23514443635940552,0.3237265348434448
0.22305917739868164,0.1431991159915924,0.18646502494812012
0.3044602572917938,0.39484649896621704,0.2350030243396759
0.3125549554824829,0.2920643985271454,0.270193874835968
0.07398902624845505,0.14134100079536438,0.08079196512699127
0.06317248195409775,0.359353631734848,0.3540339171886444
0.32789328694343567,0.20943105220794678,0.16874869167804718
0.04723924398422241,0.20514920353889465,0.06723552942276001
0.02029229886829853,0.0953044667840004,0.10289103537797928
0.05509546399116516,0.09537988156080246,0.036515846848487854
0.05770708993077278,0.039756499230861664,0.029994811862707138
0.12925298511981964,0.10871445387601852,0.08862021565437317
0.01569918356835842,0.016626495867967606,0.021860582754015923
0.06741385906934738,0.05802523344755173,0.035324886441230774
0.3635193109512329,0.20280466973781586,0.1820801943540573
0.01202818937599659,0.015265354886651039,0.009402788244187832
0.27524110674858093,0.3947272300720215,0.33441027998924255
0.1730143129825592,0.21912533044815063,0.24673603475093842
0.1195763647556305,0.12603859603405,0.08628994971513748
0.13591454923152924,0.24547749757766724,0.21515879034996033
0.1820463389158249,0.22903916239738464,0.20049428939819336
0.23547516763210297,0.27541181445121765,0.11488784849643707
0.37768760323524475,0.11351611465215683,0.41672107577323914
0.030237067490816116,0.09557546675205231,0.022557727992534637
0.043794531375169754,0.38967785239219666,0.32980453968048096
0.16100957989692688,0.21396349370479584,0.14792288839817047
0.1562504917383194,0.20310615003108978,0.17622463405132294
0.10575118660926819,0.0893390029668808,0.13020239770412445
0.0645647868514061,0.02604766935110092,0.10099295526742935
0.08761066943407059,0.1022154912352562,0.045735955238342285
0.16025316715240479,0.12907502055168152,0.0860394760966301
0.18563687801361084,0.24451321363449097,0.3386053740978241
0.19903352856636047,0.17785276472568512,0.15738989412784576
0.15279677510261536,0.23694777488708496,0.15267513692378998
0.18686729669570923,0.1817290484905243,0.22836369276046753
0.3049655854701996,0.16622503101825714,0.3029420077800751
0.04250156506896019,0.04343288764357567,0.13015173375606537
0.06423885375261307,0.02230014279484749,0.02509375847876072
0.22677743434906006,0.23752222955226898,0.21947799623012543
0.015566110610961914,0.012052163481712341,0.016612879931926727
0.13014382123947144,0.15361745655536652,0.28210997581481934
0.06753019243478775,0.10001780837774277,0.13283689320087433
0.15211887657642365,0.15474346280097961,0.1415221244096756
0.01903546415269375,0.027741562575101852,0.03347283974289894
0.034128107130527496,0.07966414839029312,0.04007142037153244
0.13004040718078613,0.48771563172340393,0.16879066824913025
0.08037472516298294,0.03860563039779663,0.02367285080254078
0.15925607085227966,0.13002237677574158,0.42924755811691284
0.1207812950015068,0.06449544429779053,0.051491156220436096
0.2952670156955719,0.1569351702928543,0.22635965049266815
0.11760938912630081,0.16261275112628937,0.16767077147960663
0.17042937874794006,0.15421214699745178,0.17948341369628906
0.20380012691020966,0.20979587733745575,0.1978004425764084
0.14173130691051483,0.17926467955112457,0.17171511054039001
0.10966851562261581,0.11891636997461319,0.220486581325531
0.06893030554056168,0.10945364832878113,0.06372196972370148
0.07272883504629135,0.09217062592506409,0.06009553000330925
0.06177543103694916,0.055357545614242554,0.04766117036342621
0.20689159631729126,0.09269590675830841,0.1062651202082634
0.1041155755519867,0.12093227356672287,0.11595145612955093
0.10468128323554993,0.06532161682844162,0.12875214219093323
0.02149289846420288,0.047608982771635056,0.03592716157436371
0.1693449467420578,0.54346764087677,0.03953384608030319
0.02790924161672592,0.03339625149965286,0.15540319681167603
0.07802973687648773,0.4057086110115051,0.5099713802337646
0.0802525207400322,0.05315224453806877,0.07130547612905502
0.016986116766929626,0.018968742340803146,0.055089179426431656
0.0743517130613327,0.06443488597869873,0.021931597962975502
0.017499571666121483,0.048709217458963394,0.06230742856860161
0.1200641319155693,0.06838661432266235,0.036659952253103256
0.14694032073020935,0.1806790679693222,0.32038310170173645
0.14047349989414215,0.0855410248041153,0.11757418513298035
0.05399879068136215,0.07889185845851898,0.11928816139698029
0.07685814052820206,0.08054152131080627,0.024018149822950363
0.19058091938495636,0.37275469303131104,0.1965012401342392
0.07116125524044037,0.07347580790519714,0.051750656217336655
0.2895611822605133,0.28106966614723206,0.3510315716266632
0.1053847223520279,0.059826675802469254,0.11496756225824356
0.014689285308122635,0.011300875805318356,0.1067284494638443
0.06741712987422943,0.048079803586006165,0.10002652555704117
0.017531849443912506,0.06032650172710419,0.015133450739085674
0.029651178047060966,0.015151504427194595,0.031464025378227234
0.008803192526102066,0.009666023775935173,0.00947044137865305
0.06787040084600449,0.022028937935829163,0.012893494218587875
0.009662741795182228,0.007944725453853607,0.008923117071390152
0.08113457262516022,0.0499931201338768,0.056435249745845795
0.01394573599100113,0.009761525318026543,0.03191497176885605
0.06634018570184708,0.10076900571584702,0.05089617148041725
0.2604455053806305,0.19382478296756744,0.2640610337257385
0.28737112879753113,0.2886979281902313,0.20487914979457855
0.3012368083000183,0.33556413650512695,0.2431570440530777
0.2850387692451477,0.35886043310165405,0.25271037220954895
0.22673623263835907,0.33272111415863037,0.4078281819820404
0.35603299736976624,0.24800227582454681,0.3688461184501648
0.17520198225975037,0.15643717348575592,0.13420894742012024
0.14296281337738037,0.14786100387573242,0.12155433744192123
0.138480544090271,0.15853962302207947,0.11588013172149658
0.3546920418739319,0.3518020510673523,0.3974608778953552
0.2772192060947418,0.20809119939804077,0.16852551698684692
0.4558272659778595,0.18364179134368896,0.30236685276031494
0.020070727914571762,0.013121790252625942,0.014394487254321575
0.050458505749702454,0.0763186365365982,0.05616055428981781
0.20375385880470276,0.20082324743270874,0.2539904713630676
0.12430288642644882,0.1355588734149933,0.13987843692302704
0.15062661468982697,0.06235530227422714,0.1293686479330063
0.06163003668189049,0.10498856008052826,0.08354586362838745
0.058748021721839905,0.07341627776622772,0.07912101596593857
0.05848846957087517,0.10591529309749603,0.06858062744140625
0.17847350239753723,0.16200575232505798,0.2620473802089691
0.17249082028865814,0.11313817650079727,0.09760002046823502
0.19139158725738525,0.2622147798538208,0.23329156637191772
0.1688000112771988,0.20765909552574158,0.15835024416446686
0.28116706013679504,0.2739505469799042,0.2947651147842407
0.38038355112075806,0.3252669870853424,0.23050649464130402
0.16834206879138947,0.17692017555236816,0.05275671184062958
0.059304431080818176,0.14874693751335144,0.03795286640524864
0.37873750925064087,0.3885791301727295,0.6364468336105347
0.1751980036497116,0.12462914735078812,0.15628452599048615
0.36228519678115845,0.29145747423171997,0.369615763425827
0.31420812010765076,0.2145185023546219,0.2585274577140808
0.17215852439403534,0.20630285143852234,0.16624923050403595
0.11405865848064423,0.24226558208465576,0.2167138010263443
0.1506110280752182,0.25466683506965637,0.1238599643111229
0.08121797442436218,0.13800546526908875,0.09261852502822876
0.02490820549428463,0.057158924639225006,0.0353604294359684
0.10460586845874786,0.08838946372270584,0.209466353058815
0.1354140192270279,0.12803760170936584,0.13023018836975098
0.06853505223989487,0.07773961126804352,0.07896247506141663
0.14095495641231537,0.1833946257829666,0.061713043600320816
0.1230863407254219,0.19499751925468445,0.10754036903381348
0.4510495066642761,0.12582801282405853,0.11830876767635345
0.0753319188952446,0.10647497326135635,0.16029022634029388
0.09295870363712311,0.2548573315143585,0.12120407819747925
0.011911047622561455,0.1505129337310791,0.1617843508720398
0.053343765437603,0.03268162161111832,0.0198095440864563
0.09151655435562134,0.04157683625817299,0.14416973292827606
0.18606820702552795,0.07855989038944244,0.03211774304509163
0.07053270190954208,0.04428848251700401,0.03136665001511574
0.13551506400108337,0.13077157735824585,0.20631441473960876
0.05866444110870361,0.1072632297873497,0.09049755334854126
0.06803394854068756,0.1937568038702011,0.17586779594421387
0.1101343184709549,0.1528647392988205,0.2274906486272812
0.029891710728406906,0.027360670268535614,0.04590102285146713
0.0580156072974205,0.05281616374850273,0.04253856837749481
0.043995022773742676,0.08455190062522888,0.09946571290493011
0.3860248327255249,0.39672186970710754,0.35524776577949524
0.16352015733718872,0.06500343978404999,0.17097343504428864
0.1729258894920349,0.09317700564861298,0.050058480352163315
0.0042191362008452415,0.005813315976411104,0.0027364022098481655
0.06679176539182663,0.06303004920482635,0.052947208285331726
0.171706885099411,0.04264212027192116,0.10770612955093384
0.06560777872800827,0.0756947323679924,0.1476622074842453
0.16903117299079895,0.02969401888549328,0.21017886698246002
0.012771077454090118,0.031332872807979584,0.02228584513068199
0.219376802444458,0.14364038407802582,0.31123748421669006
0.3608056604862213,0.15419620275497437,0.15406879782676697
0.2694604694843292,0.037865228950977325,0.026031076908111572
0.49463212490081787,0.13204927742481232,0.09882906079292297
0.07985211908817291,0.031244084239006042,0.10411585122346878
0.19973956048488617,0.19226601719856262,0.2350054681301117
0.2336840182542801,0.16318587958812714,0.15761317312717438
0.16314567625522614,0.08162495493888855,0.11738564074039459
0.18881438672542572,0.10916842520236969,0.09164489060640335
0.05390389636158943,0.08047614246606827,0.027552753686904907
0.26048147678375244,0.1218995749950409,0.06655353307723999
0.03371596708893776,0.02279018796980381,0.016026563942432404
0.04419197142124176,0.03187091276049614,0.04844214394688606
0.19908227026462555,0.23603950440883636,0.16270466148853302
0.2466307133436203,0.2600017189979553,0.1823771446943283
0.22553518414497375,0.2662811577320099,0.21787437796592712
0.26227518916130066,0.3565817177295685,0.23182721436023712
0.26023343205451965,0.11992786079645157,0.37733563780784607
0.1471087783575058,0.06845151633024216,0.13306589424610138
0.10385008156299591,0.1773141324520111,0.15920788049697876
0.01440269872546196,0.025390708819031715,0.00990986730903387
0.049289461225271225,0.0648827850818634,0.0711514800786972
0.05533367767930031,0.04124528542160988,0.11772128939628601
0.012547396123409271,0.014044092036783695,0.013945876620709896
0.1697356402873993,0.02525267004966736,0.027167225256562233
0.014059022068977356,0.02143656089901924,0.06392127275466919
0.31890103220939636,0.13544534146785736,0.033979371190071106
0.17741943895816803,0.33553534746170044,0.02348819375038147
0.12008366733789444,0.21435588598251343,0.13835814595222473
0.18502973020076752,0.06127438321709633,0.07103752344846725
0.15244092047214508,0.10339703410863876,0.12204096466302872
0.26577839255332947,0.3412493169307709,0.2625580430030823
0.18288493156433105,0.16440585255622864,0.20686888694763184
0.2278122752904892,0.07801070809364319,0.0799340158700943
0.020370764657855034,0.034198906272649765,0.04445532336831093
0.06733027845621109,0.04408868029713631,0.06202676147222519
0.15613026916980743,0.144289031624794,0.15859904885292053
0.025173744186758995,0.033187590539455414,0.1947849988937378
0.006997925695031881,0.007454006001353264,0.004328024107962847
0.04690247029066086,0.059930671006441116,0.02724236436188221
0.059107497334480286,0.1015540361404419,0.3087815046310425
0.036054596304893494,0.04734530299901962,0.0520993135869503
0.1731136590242386,0.13260404765605927,0.08871868997812271
0.07768843322992325,0.06413162499666214,0.16673675179481506
0.29249265789985657,0.24107013642787933,0.17369969189167023
0.22121377289295197,0.4039023518562317,0.2303365170955658
0.25349515676498413,0.18548095226287842,0.18910765647888184
0.054461520165205,0.08998864889144897,0.058760788291692734
0.3146483898162842,0.15143424272537231,0.14961519837379456
0.06085687130689621,0.11290252953767776,0.10025029629468918
0.1457759439945221,0.17541518807411194,0.285354346036911
0.07354865968227386,0.06293559074401855,0.07743905484676361
0.1493184119462967,0.2461468130350113,0.1556776612997055
0.23011809587478638,0.17932499945163727,0.1474159210920334
0.23388655483722687,0.1730402559041977,0.03302814066410065
0.0694851204752922,0.05277115851640701,0.13618186116218567
0.142694890499115,0.11750201880931854,0.11660343408584595
0.12415818870067596,0.23408430814743042,0.2928425073623657
0.20572155714035034,0.2994605600833893,0.2299834042787552
0.10604251176118851,0.14378385245800018,0.1385544389486313
0.3073877692222595,0.1788364201784134,0.26352962851524353
0.14845623075962067,0.09907529503107071,0.19274666905403137
0.1784246265888214,0.09400713443756104,0.14921200275421143
0.24820302426815033,0.13057850301265717,0.12169820070266724
0.16681525111198425,0.02700090780854225,0.01587868295609951
0.06778912246227264,0.04321750998497009,0.02072746865451336
0.0870419293642044,0.10574774444103241,0.17381708323955536
0.12693433463573456,0.22332614660263062,0.0762956514954567
0.04250513017177582,0.06674028933048248,0.018152156844735146
0.20468594133853912,0.0717567652463913,0.3490152955055237
0.04250626638531685,0.05065717548131943,0.09129459410905838
0.15880151093006134,0.3995439410209656,0.2511295676231384
0.2783820331096649,0.18910692632198334,0.13458217680454254
0.20619654655456543,0.11016175150871277,0.0866570919752121
0.05233607068657875,0.051558077335357666,0.0834885761141777
0.152263343334198,0.1196259930729866,0.08106064051389694
0.011117188259959221,0.0086061367765069,0.013043614104390144
0.07685714215040207,0.10877395421266556,0.0925837978720665
0.12312624603509903,0.08828951418399811,0.06646567583084106
0.06871810555458069,0.06346271932125092,0.07791193574666977
0.12689703702926636,0.10214608907699585,0.13046538829803467
0.15698619186878204,0.039997611194849014,0.211263507604599
0.21417391300201416,0.29691463708877563,0.21242330968379974
0.06946182996034622,0.3598032295703888,0.05402692034840584
0.03087186999619007,0.07002715021371841,0.0375697985291481
0.17415839433670044,0.13957327604293823,0.20628811419010162
0.3043191730976105,0.41390296816825867,0.39952078461647034
0.13594330847263336,0.09523264318704605,0.10654853284358978
0.1527501344680786,0.10061746090650558,0.13150301575660706
0.1646604686975479,0.10508622974157333,0.10847248882055283
0.12218648940324783,0.0899650827050209,0.05966201797127724
0.08597711473703384,0.03870333358645439,0.06868501752614975
0.05136268585920334,0.056082624942064285,0.10122960060834885
0.11383266746997833,0.16396786272525787,0.10333415120840073
0.12881772220134735,0.27988573908805847,0.1909867525100708
0.05825509503483772,0.07142800837755203,0.04789617285132408
0.05969942733645439,0.03890373930335045,0.07291574776172638
0.022312335669994354,0.04080060124397278,0.018354831263422966
0.07248838990926743,0.08403420448303223,0.05129331350326538
0.07978500425815582,0.06568575650453568,0.09838522970676422
0.2843518555164337,0.12193214148283005,0.20786193013191223
0.19396795332431793,0.16848202049732208,0.18309183418750763
0.06960677355527878,0.12828469276428223,0.08377840369939804
0.18957358598709106,0.132456436753273,0.06669836491346359
0.24226705729961395,0.12871772050857544,0.07867477834224701
0.11266204714775085,0.09606599062681198,0.1736343502998352
0.17272412776947021,0.12379015237092972,0.2479315996170044
0.189908966422081,0.14687448740005493,0.11263807862997055
0.10753747075796127,0.10502488911151886,0.048450250178575516
0.10467327386140823,0.0894322320818901,0.16054022312164307
0.20418047904968262,0.1623624563217163,0.16352438926696777
0.13507038354873657,0.15958742797374725,0.06347455084323883
0.1437651365995407,0.04773640260100365,0.08953503519296646
0.01105328369885683,0.04047039523720741,0.024685773998498917
0.12243961542844772,0.18298116326332092,0.14789780974388123
0.16632488369941711,0.17478272318840027,0.17253738641738892
0.23639917373657227,0.14530250430107117,0.2028811275959015
0.1137695461511612,0.13953089714050293,0.2301902025938034
0.2112712562084198,0.17170627415180206,0.16882748901844025
0.14470157027244568,0.14104700088500977,0.16354525089263916
0.19949741661548615,0.31125161051750183,0.4552392065525055
0.18277022242546082,0.4831240475177765,0.24277667701244354
0.023623118177056313,0.026901643723249435,0.03700675070285797
0.36644288897514343,0.15326152741909027,0.21458940207958221
0.10271035879850388,0.09945681691169739,0.15754249691963196
0.11873620003461838,0.1328110545873642,0.10207639634609222
0.3544694781303406,0.269950270652771,0.20029385387897491
0.07499615848064423,0.12663498520851135,0.11744493246078491
0.18893258273601532,0.1536145955324173,0.08556105196475983
0.03917708992958069,0.027013374492526054,0.03399965167045593
0.039586737751960754,0.07270878553390503,0.08320100605487823
0.05210494250059128,0.06802251935005188,0.11201239377260208
0.0760323703289032,0.10853791236877441,0.053936734795570374
0.06788048893213272,0.09177763015031815,0.04649796709418297
0.006930701434612274,0.06889615207910538,0.032978951930999756
0.09602686017751694,0.06417694687843323,0.10173681378364563
0.24480728805065155,0.551048219203949,0.2853485643863678
0.1410968154668808,0.15806640684604645,0.19657717645168304
0.14395058155059814,0.07773558050394058,0.15233968198299408
0.1558956503868103,0.16101978719234467,0.12462350726127625
0.04733745753765106,0.03718102350831032,0.05887564271688461
0.08603464812040329,0.08903435617685318,0.05665826424956322
0.005973427090793848,0.0029561009723693132,0.00554543174803257
0.11989352852106094,0.06056899204850197,0.12300009280443192
0.10228075087070465,0.10407692939043045,0.15204991400241852
0.17616380751132965,0.15302346646785736,0.17643870413303375
0.22828441858291626,0.21620333194732666,0.28854846954345703
0.1581527590751648,0.4061852693557739,0.278218537569046
0.1851232349872589,0.19302597641944885,0.2379692792892456
0.09392235428094864,0.11437230557203293,0.09303729236125946
0.1176237165927887,0.1288294792175293,0.14425572752952576
0.12639647722244263,0.12081096321344376,0.1806839257478714
0.005801137536764145,0.0055424850434064865,0.004065942484885454
0.06625883281230927,0.057961735874414444,0.04953160136938095
0.04852332919836044,0.05179092288017273,0.06738784909248352
0.09463201463222504,0.2016267329454422,0.22803549468517303
0.07265067845582962,0.12425736337900162,0.09864412248134613
0.2139623612165451,0.12174046039581299,0.13291524350643158
0.2631641924381256,0.15694639086723328,0.3080481290817261
0.21736982464790344,0.4128282368183136,0.29169780015945435
0.131794273853302,0.11789228022098541,0.11376538872718811
0.00337019981816411,0.0018917126581072807,0.023578651249408722
0.0222824364900589,0.023024486377835274,0.03158098831772804
0.3753359317779541,0.2610560953617096,0.10853695124387741
0.1896069049835205,0.21370598673820496,0.23267991840839386
0.3284798264503479,0.21690645813941956,0.1788104921579361
0.17775732278823853,0.22292526066303253,0.24480535089969635
0.0756598636507988,0.035001274198293686,0.0333748459815979
0.07443713396787643,0.04866476729512215,0.0589982233941555
0.02161414362490177,0.02794981189072132,0.05472065508365631
0.15912802517414093,0.1045672670006752,0.11095844209194183
0.10485810786485672,0.09818461537361145,0.08092118799686432
0.07823019474744797,0.10450668632984161,0.0717901811003685
0.17543244361877441,0.1451929211616516,0.15095585584640503
0.0646967813372612,0.05418330058455467,0.15940088033676147
0.06563939154148102,0.07682733237743378,0.06536057591438293
0.1787191927433014,0.05929652601480484,0.08434054255485535
0.0665225014090538,0.11585284024477005,0.1121782511472702
0.05503808334469795,0.0922824889421463,0.06486962735652924
0.1615920215845108,0.057816825807094574,0.024224184453487396
0.05944017693400383,0.12244662642478943,0.03172736614942551
0.31289952993392944,0.40331751108169556,0.3253340721130371
0.3311806917190552,0.22687025368213654,0.2571240961551666
0.31270307302474976,0.262550950050354,0.23675477504730225
0.21368274092674255,0.08944299817085266,0.24915210902690887
0.03384002298116684,0.06886782497167587,0.048875875771045685
0.2611566185951233,0.19836659729480743,0.18463779985904694
0.07052762806415558,0.08237666636705399,0.09414581954479218
0.08728116005659103,0.07112333923578262,0.2645972669124603
0.152940034866333,0.08997759222984314,0.17942824959754944
0.18799078464508057,0.15934546291828156,0.07972535490989685
0.004428276792168617,0.010000839829444885,0.0017539813416078687
0.004428420681506395,0.018565427511930466,0.022625206038355827
0.02423233725130558,0.036990296095609665,0.031198518350720406
0.051926396787166595,0.01775675266981125,0.031564682722091675
0.08002030849456787,0.12049385160207748,0.1470092236995697
0.08968975394964218,0.08506225794553757,0.06884071230888367
0.08460068702697754,0.05294261500239372,0.04781946539878845
0.17361830174922943,0.12860240042209625,0.08817867189645767
0.09449908137321472,0.11592879891395569,0.11649222671985626
0.07628986239433289,0.09686700999736786,0.1273830235004425
0.03500634431838989,0.05854159593582153,0.040251221507787704
0.20384512841701508,0.1969039887189865,0.13233964145183563
0.19455014169216156,0.24675194919109344,0.2529200613498688
0.09753108024597168,0.188995361328125,0.12076877057552338
0.15200670063495636,0.036493245512247086,0.08357685804367065
0.2406207025051117,0.19035284221172333,0.11926134675741196
0.03464275971055031,0.0595824159681797,0.047669995576143265
0.06537091732025146,0.08153873682022095,0.12732326984405518
0.08055880665779114,0.09360162168741226,0.022417690604925156
0.3202504813671112,0.262314110994339,0.13297851383686066
0.13647939264774323,0.09824930131435394,0.09851298481225967
0.23404009640216827,0.1714250147342682,0.17321519553661346
0.2652464807033539,0.269914448261261,0.17965076863765717
0.20645517110824585,0.10723249614238739,0.2512778341770172
0.0808454230427742,0.08362630009651184,0.1579398512840271
0.08409006148576736,0.10842536389827728,0.04049856588244438
0.04813116043806076,0.09707143157720566,0.10733748227357864
0.15839822590351105,0.12795688211917877,0.1243242397904396
0.08020790666341782,0.05908149853348732,0.15692086517810822
0.1762411892414093,0.18542169034481049,0.4173586070537567
0.05027902498841286,0.02008844166994095,0.09518744796514511
0.08720660209655762,0.18415778875350952,0.06936641782522202
0.24965882301330566,0.05253984034061432,0.2792064845561981
0.0212456826120615,0.022341309115290642,0.034753769636154175
0.07354266196489334,0.08182903379201889,0.07240504026412964
0.006217560730874538,0.04726194962859154,0.014159152284264565
0.09612001478672028,0.2867084741592407,0.07732576131820679
0.1159813404083252,0.14174826443195343,0.08631878346204758
0.030931808054447174,0.05563944950699806,0.03145533427596092
0.01849362626671791,0.028313254937529564,0.05578801780939102
0.09593203663825989,0.0698145404458046,0.07972871512174606
0.1278783679008484,0.10025418549776077,0.05890873819589615
0.2677997350692749,0.30093881487846375,0.2601938545703888
0.1380642205476761,0.07115087658166885,0.06996766477823257
0.2958264946937561,0.5328671932220459,0.243623748421669
0.22436994314193726,0.15404336154460907,0.20008905231952667
0.07851080596446991,0.0713418647646904,0.07464852929115295
0.17425338923931122,0.19665712118148804,0.12910287082195282
0.15885642170906067,0.13237231969833374,0.15675334632396698
0.09070459753274918,0.1466892808675766,0.12221731245517731
0.10329597443342209,0.1949406862258911,0.12257213145494461
0.11906904727220535,0.12334202229976654,0.18081071972846985
0.08689526468515396,0.04964815825223923,0.0351504422724247
0.030910106375813484,0.03522776439785957,0.04594007134437561
0.2334659993648529,0.33475613594055176,0.29873034358024597
0.21890512108802795,0.10604474693536758,0.171139195561409
0.3272227942943573,0.11365798115730286,0.17444074153900146
0.12287778407335281,0.10847833007574081,0.09910374134778976
0.12679769098758698,0.3230459690093994,0.29794400930404663
0.052224017679691315,0.03285980969667435,0.11131250858306885
0.18980790674686432,0.4572065770626068,0.09783890098333359
0.06675166636705399,0.3033495545387268,0.0960116982460022
0.18708480894565582,0.23257748782634735,0.0861472561955452
0.08149529248476028,0.04802694171667099,0.05371389538049698
0.12076575309038162,0.03949464112520218,0.07620538026094437
0.1670035421848297,0.21806472539901733,0.19697853922843933
0.16936813294887543,0.3005206882953644,0.250335156917572
0.07230547815561295,0.10105826705694199,0.11030995100736618
0.1956966519355774,0.21938523650169373,0.14932391047477722
0.013685178011655807,0.006338823586702347,0.011726436205208302
0.09227737784385681,0.12281642109155655,0.06301340460777283
0.09762220084667206,0.07619199901819229,0.05041881650686264
0.04089844971895218,0.014829855412244797,0.04763123393058777
0.30743682384490967,0.56947922706604,0.3358946442604065
0.06243116408586502,0.052185963839292526,0.04553947225213051
0.16881801187992096,0.1603885293006897,0.204833984375
0.13213907182216644,0.10569096356630325,0.19812510907649994
0.06935082376003265,0.06663046032190323,0.15403886139392853
0.059374045580625534,0.11580686271190643,0.1106746718287468
0.17707064747810364,0.12269727885723114,0.1763308346271515
0.12213734537363052,0.2688696086406708,0.12225288152694702
0.267530232667923,0.10368095338344574,0.590104877948761
0.08453072607517242,0.08049476146697998,0.03519384562969208
0.1951344907283783,0.22151482105255127,0.2620101273059845
0.4178912937641144,0.3377152383327484,0.2488403022289276
0.013775584287941456,0.016951413825154305,0.0053981817327439785
0.01324375532567501,0.030538776889443398,0.028318537399172783
0.0920390784740448,0.07484709471464157,0.11245596408843994
0.07750001549720764,0.1101079136133194,0.11685348302125931
0.2764645218849182,0.19240356981754303,0.1637643724679947
0.2204357236623764,0.06368517875671387,0.14406952261924744
0.10608457773923874,0.03803319111466408,0.08126184344291687
0.19220218062400818,0.1364378184080124,0.0887165367603302
0.025166040286421776,0.055288348346948624,0.09254782646894455
0.040796153247356415,0.08463652431964874,0.04381125792860985
0.10837343335151672,0.05513168126344681,0.06342323124408722
0.07284443825483322,0.03229605406522751,0.016399990767240524
0.28870588541030884,0.10815649479627609,0.08837607502937317
0.293069452047348,0.11681590229272842,0.08249770849943161
0.06624735891819,0.13919755816459656,0.20717045664787292
0.013855667784810066,0.0783889964222908,0.01818685419857502
0.012816193513572216,0.00992142129689455,0.02735644020140171
0.06972776353359222,0.17310898005962372,0.46597281098365784
0.10175410658121109,0.1009315773844719,0.0808238536119461
0.05211349576711655,0.09158540517091751,0.06981377303600311
0.023032141849398613,0.021257711574435234,0.0678332969546318
0.041314415633678436,0.014802553690969944,0.03215706720948219
0.23898711800575256,0.2590523064136505,0.06993164867162704
0.12744180858135223,0.2338230460882187,0.06539786607027054
0.351352334022522,0.2822951674461365,0.17403310537338257
0.18243838846683502,0.3159323036670685,0.2542476952075958
0.0481165312230587,0.10578368604183197,0.11382625997066498
0.12240443378686905,0.1647595316171646,0.08597221970558167
0.024298539385199547,0.032341714948415756,0.030672870576381683
0.07054228335618973,0.07172975689172745,0.06580615788698196
0.22622205317020416,0.2615232765674591,0.3392731845378876
0.1024346798658371,0.06972470879554749,0.06150040775537491
0.14645129442214966,0.1378132700920105,0.08199021965265274
0.2633688747882843,0.24838712811470032,0.13922777771949768
0.11683348566293716,0.13760411739349365,0.0997602641582489
0.2042449712753296,0.29750674962997437,0.22164444625377655
0.30998170375823975,0.10050856322050095,0.18849188089370728
0.2278250753879547,0.2535998225212097,0.3184388279914856
0.00448120292276144,0.0031755620148032904,0.004052977543324232
0.25239086151123047,0.2261778563261032,0.2556389570236206
0.03349417820572853,0.05265339836478233,0.05364638939499855
0.013969039544463158,0.12285938858985901,0.01682335138320923
0.30364978313446045,0.26089876890182495,0.06796756386756897
0.04415542259812355,0.04469950869679451,0.11000892519950867
0.08911355584859848,0.08647105097770691,0.09983272850513458
0.007697281427681446,0.014117147773504257,0.010473895817995071
0.07747192680835724,0.06041610240936279,0.04894764721393585
0.02934349700808525,0.015342319384217262,0.020845778286457062
0.07659585028886795,0.11023715138435364,0.0626203864812851
0.16622871160507202,0.25580522418022156,0.12510651350021362
0.2745925486087799,0.15666626393795013,0.18629716336727142
0.05134572461247444,0.1649027019739151,0.1867782324552536
0.044932518154382706,0.0701196938753128,0.024471603333950043
0.08325649797916412,0.14173154532909393,0.12968389689922333
0.0841895192861557,0.03168538212776184,0.021994251757860184
0.10887660086154938,0.07767362147569656,0.1592988520860672
0.0644693449139595,0.1116323471069336,0.11806304007768631
0.19830548763275146,0.13819274306297302,0.19253848493099213
0.16062580049037933,0.18324659764766693,0.13368117809295654
0.10962387919425964,0.09161889553070068,0.10816098004579544
0.1915850192308426,0.21888017654418945,0.35301998257637024
0.0741802379488945,0.02617407776415348,0.05841026455163956
0.05960502848029137,0.12495556473731995,0.043739743530750275
0.09079520404338837,0.027408268302679062,0.038234446197748184
0.1170654371380806,0.05082013085484505,0.12365459650754929
0.12957622110843658,0.16040575504302979,0.10513538122177124
0.024831648916006088,0.035579219460487366,0.1033007949590683
0.04821239411830902,0.06473402678966522,0.03515378013253212
0.12307480722665787,0.08762802183628082,0.16875745356082916
0.11082286387681961,0.10826423764228821,0.1148262768983841
0.3409087061882019,0.15606705844402313,0.24242542684078217
0.11198420077562332,0.03429444134235382,0.07132850587368011
0.2680756151676178,0.2087417095899582,0.3608088493347168
0.07898562401533127,0.10053335130214691,0.08370461314916611
0.10039333254098892,0.3829633593559265,0.16249151527881622
0.08481539785861969,0.22827787697315216,0.0731334239244461
0.029189659282565117,0.09355008602142334,0.0223007183521986
0.22982223331928253,0.06338246911764145,0.15468984842300415
0.17216214537620544,0.23905237019062042,0.19615937769412994
0.0016918055480346084,0.0011759810149669647,0.0020518051460385323
0.142665296792984,0.05649745091795921,0.04244373366236687
0.09160210192203522,0.15775831043720245,0.10785600543022156
0.0653432160615921,0.12331962585449219,0.15363460779190063
0.0875953882932663,0.055451661348342896,0.019760744646191597
0.13371746242046356,0.16999903321266174,0.3209245204925537
0.1490497589111328,0.1262180656194687,0.12339179962873459
0.1595000922679901,0.130051389336586,0.16171877086162567
0.13876257836818695,0.13198085129261017,0.09401684999465942
0.15924663841724396,0.21612548828125,0.28565672039985657
0.284595787525177,0.33318573236465454,0.15639027953147888
0.08839646726846695,0.11425508558750153,0.1350850760936737
0.13468037545681,0.13875249028205872,0.09134026616811752
0.21704232692718506,0.26922911405563354,0.40289074182510376
0.22592802345752716,0.12952014803886414,0.06928304582834244
0.15441301465034485,0.23790770769119263,0.24335192143917084
0.09180422872304916,0.1063709482550621,0.13452188670635223
0.3388860523700714,0.314216673374176,0.29791998863220215
0.12326336652040482,0.1835407167673111,0.14469486474990845
0.3478715121746063,0.21914392709732056,0.2001718431711197
0.21956667304039001,0.14268414676189423,0.1554969847202301
0.3150958716869354,0.23751208186149597,0.27648022770881653
0.18146444857120514,0.3759569823741913,0.2347787469625473
0.11645959317684174,0.10531086474657059,0.12360139191150665
0.10442231595516205,0.041277747601270676,0.18579049408435822
0.26606228947639465,0.2741410434246063,0.31003063917160034
0.06833698600530624,0.22472544014453888,0.11638481169939041
0.10706844180822372,0.13371720910072327,0.17551331222057343
0.21594449877738953,0.2422013282775879,0.09691628068685532
0.3289145529270172,0.17069797217845917,0.21770204603672028
0.1966787576675415,0.1827249675989151,0.17940570414066315
0.06611351668834686,0.03716156631708145,0.057756826281547546
0.09454745054244995,0.15808352828025818,0.17563028633594513
0.016790319234132767,0.014590089209377766,0.019433094188570976
0.021996982395648956,0.02431689016520977,0.17244067788124084
0.08298441767692566,0.18409860134124756,0.025246160104870796
0.22868682444095612,0.2955283224582672,0.13136433064937592
0.25088733434677124,0.2268299013376236,0.20833083987236023
0.15258938074111938,0.16515424847602844,0.11640682071447372
0.09599728882312775,0.0948968306183815,0.08114025741815567
0.06688164174556732,0.07388588041067123,0.06666754931211472
0.23397716879844666,0.2015283852815628,0.18214015662670135
0.12146206200122833,0.12822289764881134,0.11811776459217072
0.20191405713558197,0.10529902577400208,0.11559559404850006
0.15924757719039917,0.24813538789749146,0.22239750623703003
0.2393917292356491,0.11683206260204315,0.10975190252065659
0.10226262360811234,0.12458831071853638,0.14297375082969666
0.18566493690013885,0.18014395236968994,0.20275767147541046
0.14486165344715118,0.2466791272163391,0.2132408767938614
0.20488570630550385,0.11173684895038605,0.14422300457954407
0.13048376142978668,0.3553599715232849,0.08169951289892197
0.10847513377666473,0.10531851649284363,0.1420149952173233
0.05343033745884895,0.12551774084568024,0.17154327034950256
0.21584992110729218,0.14166845381259918,0.08216941356658936
0.06997952610254288,0.06525445729494095,0.05012274160981178
0.2245054841041565,0.13394927978515625,0.5690382122993469
0.07742024958133698,0.06883637607097626,0.05130414292216301
0.18348732590675354,0.1915281116962433,0.12329526245594025
0.12678983807563782,0.05181020498275757,0.05683379992842674
0.2819574773311615,0.12045656889677048,0.1732090413570404
0.23793120682239532,0.16289062798023224,0.06207019090652466
0.033176861703395844,0.22898243367671967,0.06658405065536499
0.11537749320268631,0.1339648813009262,0.0898837074637413
0.07555072009563446,0.07981251180171967,0.05864061415195465
0.0960826501250267,0.15236803889274597,0.03072156012058258
0.059573814272880554,0.05046650767326355,0.08527109026908875
0.21624186635017395,0.05901135876774788,0.028133541345596313
0.14003987610340118,0.14909709990024567,0.21648739278316498
0.10347751528024673,0.039360713213682175,0.13171720504760742
0.11286062002182007,0.06411051005125046,0.07728903740644455
0.06465113908052444,0.05333958566188812,0.02795543149113655
0.05982791259884834,0.09220200777053833,0.11292249709367752
0.15338177978992462,0.13774152100086212,0.20871774852275848
0.028294481337070465,0.027335025370121002,0.045745477080345154
0.11363125592470169,0.12718260288238525,0.18966880440711975
0.1083373948931694,0.057735543698072433,0.048537131398916245
0.1529051810503006,0.2683282792568207,0.27993515133857727
0.14337193965911865,0.08500804007053375,0.14222072064876556
0.13782404363155365,0.14216724038124084,0.06270875036716461
0.08321055769920349,0.0904686376452446,0.0263442974537611
0.035905640572309494,0.03541263937950134,0.03572075068950653
0.1663248986005783,0.46469467878341675,0.14545217156410217
0.20089185237884521,0.12622979283332825,0.21038614213466644
0.11228619515895844,0.01936490647494793,0.041838403791189194
0.17924337089061737,0.034946586936712265,0.0451076366007328
0.05634565278887749,0.15587648749351501,0.2174440175294876
0.0473012812435627,0.10406985133886337,0.0780918151140213
0.0597868338227272,0.13378755748271942,0.06174949184060097
0.1592475026845932,0.18835552036762238,0.08066355437040329
0.033983342349529266,0.013605070300400257,0.028593963012099266
0.09279786795377731,0.05437357723712921,0.02835387922823429
0.3057055175304413,0.2566128373146057,0.18770229816436768
0.21608664095401764,0.08579529076814651,0.07946034520864487
0.28417158126831055,0.0870199054479599,0.11065280437469482
0.2024044692516327,0.09445173293352127,0.14097151160240173
0.07729566097259521,0.10652432590723038,0.07066962867975235
0.08473451435565948,0.09180419147014618,0.1199149340391159
0.11250129342079163,0.09747914969921112,0.17036199569702148
0.05477307364344597,0.11789078265428543,0.03940756246447563
0.2997475564479828,0.2785407602787018,0.13684296607971191
0.15134263038635254,0.06713409721851349,0.07646598666906357
0.09186307340860367,0.10481036454439163,0.09416299313306808
0.1426176279783249,0.09954177588224411,0.07332158088684082
0.0697295218706131,0.06149514764547348,0.043907281011343
0.18945841491222382,0.13264185190200806,0.13444893062114716
0.12846586108207703,0.11327055841684341,0.12034003436565399
0.12340226024389267,0.09047924727201462,0.11649461835622787
0.23503564298152924,0.2195582091808319,0.22814679145812988
0.2801242470741272,0.30771589279174805,0.22407522797584534
0.1953885555267334,0.3216007947921753,0.2743418216705322
0.22417595982551575,0.1860249936580658,0.2325930893421173
0.044878195971250534,0.19805660843849182,0.18150033056735992
0.08634068816900253,0.054225433617830276,0.0755842924118042
0.10881271213293076,0.08693481236696243,0.0482911616563797
0.069620281457901,0.05842491611838341,0.04992853105068207
0.11265771090984344,0.11390985548496246,0.05007561668753624
0.040071576833724976,0.056559592485427856,0.05753248557448387
0.05835961177945137,0.027503779157996178,0.01615721732378006
0.05415252596139908,0.05688133463263512,0.0875997319817543
0.20840509235858917,0.3636172115802765,0.19378018379211426
0.2946556508541107,0.3242240250110626,0.2588402330875397
0.15877665579319,0.2564331591129303,0.20655471086502075
0.18014338612556458,0.2999078929424286,0.26884618401527405
0.20464424788951874,0.10829177498817444,0.19848793745040894
0.16796071827411652,0.22766266763210297,0.2592998147010803
0.23799923062324524,0.1969926506280899,0.10497510433197021
0.07030424475669861,0.05663676559925079,0.04384637251496315
0.01899614930152893,0.0077925389632582664,0.004483496770262718
0.09008821845054626,0.10423418879508972,0.12043684720993042
0.07962662726640701,0.18404123187065125,0.0784362405538559
0.07494019716978073,0.03215615823864937,0.08644741028547287
0.027009345591068268,0.025418635457754135,0.009115433320403099
0.18992507457733154,0.09340246021747589,0.25565648078918457
0.0817122533917427,0.15910840034484863,0.28623491525650024
0.32821348309516907,0.41556933522224426,0.12210777401924133
0.11273150891065598,0.1058434322476387,0.20585975050926208
0.28592437505722046,0.4105282425880432,0.4026922583580017
0.17518121004104614,0.18628814816474915,0.1159530058503151
0.3369242250919342,0.36249402165412903,0.18947847187519073
0.11005796492099762,0.09184619039297104,0.08327127248048782
0.105955570936203,0.09602871537208557,0.09998943656682968
0.09076353162527084,0.1203889548778534,0.16626392304897308
0.07117607444524765,0.07291384786367416,0.1104692742228508
0.09878181666135788,0.03826477378606796,0.05350162461400032
0.1584850251674652,0.11327863484621048,0.11687352508306503
0.19677501916885376,0.18307721614837646,0.1323724091053009
0.10018067806959152,0.3338412940502167,0.21584013104438782
0.2140975296497345,0.21732179820537567,0.3097279369831085
0.13176779448986053,0.2922579348087311,0.16756588220596313
0.3305816650390625,0.37116140127182007,0.30782145261764526
0.23624621331691742,0.12029627710580826,0.35815754532814026
0.23454482853412628,0.43055668473243713,0.29496121406555176
0.15642757713794708,0.126944437623024,0.1368652880191803
0.26354044675827026,0.19917389750480652,0.12499922513961792
0.07659676671028137,0.11391351372003555,0.15185365080833435
0.08548770099878311,0.30204567313194275,0.1577669233083725
0.2767139971256256,0.25708216428756714,0.08747294545173645
0.0981539934873581,0.19010263681411743,0.16313029825687408
0.09424600750207901,0.14142769575119019,0.1745285540819168
0.08034157007932663,0.0916534885764122,0.08358254283666611
0.0469084307551384,0.03345782309770584,0.03491714596748352
0.02622036822140217,0.03094853274524212,0.03312477841973305
