0.07224535942077637,0.06009521335363388,0.03430042415857315
0.04044459015130997,0.06284739077091217,0.05050406605005264
0.05106067657470703,0.013162389397621155,0.02088361606001854
0.09664182364940643,0.037537116557359695,0.08649835735559464
0.05643656104803085,0.04858599975705147,0.04334375634789467
0.06556066125631332,0.07402630895376205,0.0445505790412426
0.034511763602495193,0.03258422762155533,0.02745036408305168
0.03363577276468277,0.09709833562374115,0.024807751178741455
0.05644405260682106,0.04366452991962433,0.05831952393054962
0.02516837790608406,0.015713093802332878,0.07764536142349243
0.047712646424770355,0.08237840235233307,0.07779780775308609
0.06298196315765381,0.06802354753017426,0.05520723760128021
0.06604035943746567,0.057450614869594574,0.06106550246477127
0.04866454377770424,0.07245051860809326,0.053843237459659576
0.04627756401896477,0.07810201495885849,0.06621908396482468
0.030861660838127136,0.039612121880054474,0.06387928128242493
0.05741548910737038,0.05067883059382439,0.05704136937856674
0.10906725376844406,0.05626998469233513,0.021442314609885216
0.09167912602424622,0.014177526347339153,0.05777711421251297
0.06433585286140442,0.04003054276108742,0.1441527009010315
0.14330947399139404,0.12856373190879822,0.06441529095172882
0.020651929080486298,0.021419143304228783,0.061057962477207184
0.05492796748876572,0.01760004088282585,0.045950911939144135
0.019772276282310486,0.037241194397211075,0.01097831316292286
0.06382513791322708,0.04577396810054779,0.052810147404670715
0.041973650455474854,0.028119346126914024,0.05401691049337387
0.07642959803342819,0.032724179327487946,0.09423839300870895
0.016520589590072632,0.01307735312730074,0.014719312079250813
0.023930035531520844,0.02475913241505623,0.03913864865899086
0.1518540382385254,0.0713578462600708,0.05202580988407135
0.05118187889456749,0.06179894506931305,0.059327077120542526
0.06234237179160118,0.029337750747799873,0.046373095363378525
0.025836603716015816,0.09523452073335648,0.03912346065044403
0.025163432583212852,0.046695251017808914,0.040688030421733856
0.06739383935928345,0.06539735198020935,0.009324920363724232
0.023828580975532532,0.025680338963866234,0.0421900637447834
0.04572411626577377,0.031884923577308655,0.03067895770072937
0.029713718220591545,0.036776352673769,0.0333087183535099
0.0256203543394804,0.1221102848649025,0.12006156891584396
0.02786613255739212,0.0919591635465622,0.0444558784365654
0.06738439947366714,0.01938781328499317,0.03479830548167229
0.021953802555799484,0.02503432147204876,0.004897480830550194
0.04169250652194023,0.026017731055617332,0.07773260027170181
0.037057291716337204,0.017758505418896675,0.016658876091241837
0.026170289143919945,0.02470196597278118,0.009610806591808796
0.08331518620252609,0.24363912642002106,0.12286754697561264
0.02146587148308754,0.05456612631678581,0.02227090671658516
0.11080162227153778,0.12051771581172943,0.11727511137723923
0.03128267079591751,0.030964422971010208,0.0756150409579277
0.08902756869792938,0.08910534530878067,0.05982314422726631
0.03465947136282921,0.027100645005702972,0.015705980360507965
0.05482733994722366,0.05761900171637535,0.03931020572781563
0.0433998703956604,0.016664965078234673,0.05285871401429176
0.03394840657711029,0.0654807835817337,0.021930698305368423
0.029126711189746857,0.0748589038848877,0.1437501758337021
0.11960899829864502,0.02559138834476471,0.08858128637075424
0.01776319369673729,0.029379960149526596,0.02095431461930275
0.0897655189037323,0.027060719206929207,0.040130529552698135
0.07646428048610687,0.03308863937854767,0.10221222043037415
0.04482784494757652,0.05689282342791557,0.050431814044713974
0.04000994563102722,0.06719864159822464,0.06555493175983429
0.09180588275194168,0.0918288454413414,0.05962318927049637
0.017453569918870926,0.03366018831729889,0.009137796238064766
0.060209281742572784,0.03436503931879997,0.07568877935409546
0.049632783979177475,0.07108166068792343,0.04366148263216019
0.05454835295677185,0.061326272785663605,0.06866686791181564
0.09290267527103424,0.06367994844913483,0.09227659553289413
0.05004787817597389,0.09458259493112564,0.037591103464365005
0.020860042423009872,0.033594973385334015,0.02947016805410385
0.008940325118601322,0.04528134688735008,0.03217765688896179
0.020755376666784286,0.044081442058086395,0.03382176160812378
0.06790773570537567,0.08445245772600174,0.13143128156661987
0.08621305227279663,0.06600691378116608,0.040885474532842636
0.03513731062412262,0.06349612772464752,0.0684685930609703
0.03316977992653847,0.09625297784805298,0.11542539298534393
0.060103073716163635,0.030545707792043686,0.056664660573005676
0.08357714861631393,0.08520717173814774,0.08016568422317505
0.05589742586016655,0.09620098024606705,0.1792750060558319
0.16425557434558868,0.1805967390537262,0.051984742283821106
0.20379959046840668,0.09642001241445541,0.08720400929450989
0.07010485976934433,0.044932469725608826,0.0649033635854721
0.04377930611371994,0.05936230719089508,0.0591629259288311
0.07752371579408646,0.05672108754515648,0.03654860705137253
0.014748560264706612,0.021173669025301933,0.030744196847081184
0.0218068677932024,0.03157675638794899,0.046089403331279755
0.1470181941986084,0.08624928444623947,0.12934595346450806
0.05622408539056778,0.042746804654598236,0.10503201931715012
0.032791100442409515,0.012939001433551311,0.05898042768239975
0.0367148220539093,0.07632216811180115,0.09403041750192642
0.029845908284187317,0.053577955812215805,0.06274628639221191
0.044900115579366684,0.021532364189624786,0.034919124096632004
0.011977437883615494,0.03597628325223923,0.0595206655561924
0.016074640676379204,0.06091693416237831,0.017382044345140457
0.03679036349058151,0.05914502590894699,0.06657236069440842
0.08347223699092865,0.037356093525886536,0.09232968091964722
0.041324861347675323,0.0259996484965086,0.021849170327186584
0.04687602445483208,0.04410281032323837,0.06972525268793106
0.04593377560377121,0.03514770418405533,0.05460900813341141
0.10613691061735153,0.042723484337329865,0.08381453901529312
0.0383206345140934,0.04756389558315277,0.09402956068515778
0.06018596142530441,0.06012866273522377,0.04324839636683464
0.13987918198108673,0.15596076846122742,0.1356358379125595
0.06109011918306351,0.052589334547519684,0.08633726090192795
0.039615992456674576,0.032592739909887314,0.12173550575971603
0.03693091869354248,0.10122429579496384,0.11196821182966232
0.055335644632577896,0.029937254264950752,0.04431648924946785
0.051466669887304306,0.052414726465940475,0.05229201167821884
0.045577988028526306,0.0462660975754261,0.04584391415119171
0.028844371438026428,0.04254554584622383,0.03277622535824776
0.14705398678779602,0.08025617152452469,0.028254108503460884
0.06934326142072678,0.061897922307252884,0.06930890679359436
0.06361255794763565,0.07381000369787216,0.06914828717708588
0.043777406215667725,0.03853695094585419,0.10212454944849014
0.015009548515081406,0.16256669163703918,0.0378340408205986
0.07016899436712265,0.10519088059663773,0.0828683152794838
0.05177799239754677,0.061753273010253906,0.02299570105969906
0.02899395301938057,0.020565249025821686,0.03564551845192909
0.07493176311254501,0.025196682661771774,0.05802816525101662
0.03820844739675522,0.01698816567659378,0.06643250584602356
0.02138030156493187,0.03183770924806595,0.033479224890470505
0.04323779046535492,0.043365541845560074,0.038869187235832214
0.015783239156007767,0.023411940783262253,0.023342471569776535
0.039633896201848984,0.03549240902066231,0.04819590225815773
0.12758322060108185,0.023661106824874878,0.056632351130247116
0.0919303297996521,0.04453326016664505,0.036791328340768814
0.04320625960826874,0.04116722196340561,0.022897785529494286
0.1082223653793335,0.09819836169481277,0.020539075136184692
0.03322704881429672,0.09771406650543213,0.07970747351646423
0.00945327803492546,0.03967472165822983,0.03234449774026871
0.009734206832945347,0.0330183207988739,0.034651562571525574
0.016795260831713676,0.09475473314523697,0.10152839124202728
0.02542021870613098,0.023650197312235832,0.07111881673336029
0.027804015204310417,0.029814837500452995,0.044906631112098694
0.12762649357318878,0.09044229239225388,0.0599234439432621
0.020408639684319496,0.01227526180446148,0.04742515832185745
0.15087762475013733,0.08836887776851654,0.030326422303915024
0.06639869511127472,0.06787055730819702,0.08414700627326965
0.07803492248058319,0.061736807227134705,0.053169313818216324
0.02140670269727707,0.033392541110515594,0.027326883748173714
0.07130774110555649,0.020210284739732742,0.07324688136577606
0.019648278132081032,0.02543755993247032,0.06693731248378754
0.07340262085199356,0.01647718995809555,0.06253594160079956
0.04717504605650902,0.04388074949383736,0.017059532925486565
0.02738313563168049,0.049433909356594086,0.08814233541488647
0.01942773163318634,0.02142786607146263,0.015586325898766518
0.0287947915494442,0.020516248419880867,0.03986383602023125
0.03746029734611511,0.02900117263197899,0.06414199620485306
0.030794627964496613,0.03282463178038597,0.04042449966073036
0.04686759039759636,0.06256857514381409,0.04728741943836212
0.16460509598255157,0.04758220911026001,0.052771132439374924
0.06302999705076218,0.030390243977308273,0.026356536895036697
0.02815575897693634,0.02153019979596138,0.012075855396687984
0.04061056300997734,0.0389125719666481,0.1048402264714241
0.07733482122421265,0.07028231769800186,0.04413248598575592
0.06247569993138313,0.07251358777284622,0.05850173532962799
0.06360534578561783,0.05516723170876503,0.07584402710199356
0.020648906007409096,0.041590359061956406,0.04252636060118675
0.07111921906471252,0.11318797618150711,0.05956051126122475
0.116142638027668,0.09281381964683533,0.22324301302433014
0.060843903571367264,0.08035833388566971,0.06472654640674591
0.01903202198445797,0.03223288431763649,0.01649404875934124
0.02671022154390812,0.0487188920378685,0.010980569757521152
0.0347525030374527,0.028651686385273933,0.05125511437654495
0.02735939435660839,0.030285127460956573,0.03927937522530556
0.04462621733546257,0.039306823164224625,0.04368704929947853
0.047630760818719864,0.0756511241197586,0.06788773834705353
0.0814267173409462,0.06675296276807785,0.03061840683221817
0.022926798090338707,0.026727993041276932,0.02821660228073597
0.025301245972514153,0.05618925392627716,0.07493796199560165
0.03167661279439926,0.043327298015356064,0.13671064376831055
0.09740043431520462,0.055522654205560684,0.06846658885478973
0.08530084043741226,0.01587524078786373,0.023256083950400352
0.05993317440152168,0.028772268444299698,0.012599611654877663
0.0838877335190773,0.05153966322541237,0.02855532057583332
0.030768023803830147,0.020141301676630974,0.035875916481018066
0.016032416373491287,0.017804328352212906,0.020847894251346588
0.028720075264573097,0.14941297471523285,0.03366712108254433
0.026358408853411674,0.07362419366836548,0.014527473598718643
0.010719417594373226,0.031073525547981262,0.12307974696159363
0.04527944326400757,0.02077973075211048,0.09075514227151871
0.009467353112995625,0.03743467852473259,0.033228106796741486
0.14566901326179504,0.04127782955765724,0.09238553047180176
0.048711229115724564,0.054127391427755356,0.023698316887021065
0.05530119314789772,0.043440282344818115,0.034480053931474686
0.039915211498737335,0.04157651215791702,0.08791202306747437
0.04058928042650223,0.01364073809236288,0.030153511092066765
0.01773342303931713,0.02691391296684742,0.016096042469143867
0.026294317096471786,0.017149046063423157,0.012469388544559479
0.0724349170923233,0.07078423351049423,0.03171496465802193
0.05621236935257912,0.09308499097824097,0.04426738619804382
0.044847480952739716,0.057625047862529755,0.046363797038793564
0.03740030899643898,0.02213936857879162,0.04965001344680786
0.06809943169355392,0.046104684472084045,0.06542281061410904
0.05032450705766678,0.026281405240297318,0.03183640539646149
0.03694761544466019,0.052914973348379135,0.08352269232273102
0.07422275096178055,0.0506712831556797,0.027129169553518295
0.04352722689509392,0.1070864349603653,0.03726068511605263
0.029203999787569046,0.020914478227496147,0.0715327113866806
0.07306553423404694,0.08720912039279938,0.061059921979904175
0.10224972665309906,0.0537848062813282,0.11724258214235306
0.02740570902824402,0.052192844450473785,0.04895215481519699
0.06837475299835205,0.06415713578462601,0.10975204408168793
0.010267727077007294,0.024642810225486755,0.047816865146160126
0.04718592390418053,0.053432896733284,0.048944778740406036
0.07568792998790741,0.06778086721897125,0.07424037903547287
0.09032131731510162,0.031526971608400345,0.08860917389392853
0.03705635294318199,0.05084120109677315,0.08673079311847687
0.048694487661123276,0.04640788212418556,0.07344304025173187
0.032994594424963,0.013713289052248001,0.07645971328020096
0.06552565097808838,0.06606011837720871,0.045569371432065964
0.06714742630720139,0.04861081764101982,0.0331849530339241
0.0376884900033474,0.07724684476852417,0.05454375222325325
0.018023459240794182,0.0050700330175459385,0.01962415874004364
0.036405228078365326,0.02670883946120739,0.02848152630031109
0.012317398563027382,0.010884792543947697,0.03720533847808838
0.024430513381958008,0.05799080431461334,0.02389870397746563
0.02325272560119629,0.03150833398103714,0.030787253752350807
0.03778436779975891,0.01913668029010296,0.04408784583210945
0.030496036633849144,0.015736764296889305,0.031036777421832085
0.07166749238967896,0.09889090806245804,0.08948498219251633
0.027456553652882576,0.06793423742055893,0.04637054353952408
0.06823908537626266,0.06255253404378891,0.0739290788769722
0.012324687093496323,0.021619286388158798,0.024569423869252205
0.05891850218176842,0.07088976353406906,0.07986196875572205
0.048606254160404205,0.04391497001051903,0.057944513857364655
0.043514132499694824,0.03999406471848488,0.03998205065727234
0.02143068052828312,0.030546629801392555,0.02191051095724106
0.054289039224386215,0.11804287880659103,0.027382999658584595
0.05014569312334061,0.00808577612042427,0.010522945784032345
0.020465299487113953,0.043996792286634445,0.02858169935643673
0.019762542098760605,0.014802981168031693,0.06042692810297012
0.07157556712627411,0.015269576571881771,0.0476197712123394
0.018213491886854172,0.007222146261483431,0.0198467206209898
0.017986323684453964,0.024076811969280243,0.03207040950655937
0.05734596028923988,0.0585978627204895,0.04418782517313957
0.021026093512773514,0.02396293170750141,0.045049507170915604
0.12326017022132874,0.09711042791604996,0.0738065093755722
0.1712900847196579,0.14262422919273376,0.2423330694437027
0.12719547748565674,0.05903501808643341,0.19139713048934937
0.05864347890019417,0.10265173017978668,0.036390259861946106
0.010427277535200119,0.02696722000837326,0.027959004044532776
0.11909907311201096,0.01591784507036209,0.010939804837107658
0.02019672468304634,0.014622011221945286,0.06553343683481216
0.07021129131317139,0.029078101739287376,0.0822768583893776
0.020326388999819756,0.020118622109293938,0.03233523666858673
0.020872801542282104,0.01300501823425293,0.03547145426273346
0.029217811301350594,0.030394013971090317,0.03253811597824097
0.03144955635070801,0.03224876523017883,0.006681111175566912
0.024902911856770515,0.17190545797348022,0.05996688827872276
0.0149381123483181,0.02815178781747818,0.01942441053688526
0.09090364724397659,0.01953410729765892,0.16216358542442322
0.049861401319503784,0.09122070670127869,0.03167762607336044
0.11766155064105988,0.05456126853823662,0.05958516150712967
0.08163902908563614,0.05937514454126358,0.11689835041761398
0.057772520929574966,0.06499233096837997,0.045152101665735245
0.11821034550666809,0.1125248596072197,0.0788956806063652
0.06134092062711716,0.07591817528009415,0.05436892434954643
0.051135335117578506,0.05074755847454071,0.04708445817232132
0.038528379052877426,0.028238849714398384,0.08835698664188385
0.06074141710996628,0.08535930514335632,0.06468646228313446
0.04338942840695381,0.07881654053926468,0.06155241280794144
0.030319510027766228,0.019288673996925354,0.03808821737766266
0.07249215990304947,0.08774928748607635,0.05501658469438553
0.023883357644081116,0.048801567405462265,0.047100357711315155
0.0542013980448246,0.07150239497423172,0.04456745833158493
0.040966715663671494,0.04534189775586128,0.06421016156673431
0.05256626009941101,0.043224554508924484,0.05586126819252968
0.0743626281619072,0.06345442682504654,0.03744998946785927
0.09962044656276703,0.16307346522808075,0.1506578028202057
0.03829999640583992,0.030001431703567505,0.04978723078966141
0.09744061529636383,0.09559792280197144,0.07932408154010773
0.035341545939445496,0.03737952187657356,0.03328929841518402
0.044398073107004166,0.03467998653650284,0.037967078387737274
0.03251782804727554,0.024609476327896118,0.05455874651670456
0.02288094535470009,0.030226973816752434,0.07114824652671814
0.025470765307545662,0.0717535987496376,0.02685530297458172
0.062119923532009125,0.03831940144300461,0.06358125060796738
0.02795916423201561,0.032932624220848083,0.04106619209051132
0.0770639106631279,0.07572659850120544,0.05340644717216492
0.027005497366189957,0.02061675861477852,0.014381421729922295
0.09174696356058121,0.05192899331450462,0.026229314506053925
0.02515328861773014,0.0706154927611351,0.05970495194196701
0.04209249094128609,0.019781269133090973,0.06761175394058228
0.051282141357660294,0.03222764655947685,0.03333882987499237
0.027252940461039543,0.035492777824401855,0.010694410651922226
0.12016231566667557,0.03191927820444107,0.022944720461964607
0.0213555246591568,0.006231324747204781,0.02551915869116783
0.07473524659872055,0.05166846141219139,0.024893172085285187
0.061419226229190826,0.09050936996936798,0.04983853921294212
0.056877486407756805,0.046457767486572266,0.06848818063735962
0.025826558470726013,0.02688554674386978,0.018310880288481712
0.06340101361274719,0.09059634059667587,0.04020843654870987
0.0686488226056099,0.07308125495910645,0.06316547095775604
0.06937612593173981,0.09622038900852203,0.041568368673324585
0.027252046391367912,0.03492594137787819,0.0780336782336235
0.07635651528835297,0.056125905364751816,0.030004749074578285
0.032695021480321884,0.019789399579167366,0.017213743180036545
0.04537142440676689,0.009402640163898468,0.060676317662000656
0.08456974476575851,0.02381189353764057,0.016780491918325424
0.026254726573824883,0.06961005181074142,0.0174301415681839
0.0694337785243988,0.0245190616697073,0.13843436539173126
0.0646592527627945,0.05900434032082558,0.05559771507978439
0.05116066709160805,0.04213578626513481,0.04018160328269005
0.09746568650007248,0.04840078577399254,0.022302309051156044
0.020329928025603294,0.013818291015923023,0.0740915909409523
0.04801546409726143,0.06757920235395432,0.05183029547333717
0.19061250984668732,0.0510944202542305,0.025994369760155678
0.06536932289600372,0.04567992687225342,0.0904969722032547
0.03914710879325867,0.060027651488780975,0.025790497660636902
0.03719911724328995,0.04291770979762077,0.07025134563446045
0.04231342300772667,0.09529601782560349,0.087760329246521
0.055079199373722076,0.05665169283747673,0.058363210409879684
0.054906077682971954,0.055942147970199585,0.05617840588092804
0.020575547590851784,0.02718258649110794,0.010141583159565926
0.040683288127183914,0.05682266876101494,0.029466528445482254
0.0449666827917099,0.094648078083992,0.0436466746032238
0.01737591065466404,0.028033331036567688,0.03578850254416466
0.07446536421775818,0.05272841826081276,0.0250665582716465
0.1680876761674881,0.05097733438014984,0.02998686581850052
0.032172638922929764,0.019370678812265396,0.03462925925850868
0.06411242485046387,0.04928843677043915,0.04768632352352142
0.02124669775366783,0.04276062175631523,0.07136521488428116
0.058229777961969376,0.03559865429997444,0.052894607186317444
0.03806604817509651,0.07420235872268677,0.02156749926507473
0.0360388346016407,0.035058002918958664,0.08613626658916473
0.10634071379899979,0.1681421846151352,0.10994968563318253
0.052724067121744156,0.03916998952627182,0.03488548845052719
0.13395537436008453,0.07986696064472198,0.03431406989693642
0.046103544533252716,0.08281204849481583,0.0265121478587389
0.026730846613645554,0.03950377181172371,0.03496942296624184
0.12440724670886993,0.07488808035850525,0.046125028282403946
0.04570001736283302,0.03534843400120735,0.030931316316127777
0.02175164967775345,0.031033683568239212,0.03635409474372864
0.04167658090591431,0.062274228781461716,0.040679335594177246
0.040422454476356506,0.022099468857049942,0.09177259355783463
0.03048894926905632,0.06549334526062012,0.024061618372797966
0.02093970961868763,0.04032601788640022,0.02668173424899578
0.09604096412658691,0.10461171716451645,0.03246554732322693
0.12127479910850525,0.026529133319854736,0.03671064227819443
0.07159579545259476,0.09174139052629471,0.0745760127902031
0.039873652160167694,0.04003278911113739,0.07400902360677719
0.07588153332471848,0.04388851299881935,0.07464374601840973
0.036033179610967636,0.027556218206882477,0.029781557619571686
0.09263516217470169,0.09733418375253677,0.19208404421806335
0.14658145606517792,0.063779316842556,0.16236519813537598
0.006930484902113676,0.018918121233582497,0.06695657223463058
0.02511412650346756,0.05184358358383179,0.11466266214847565
0.035271573811769485,0.039690565317869186,0.027098681777715683
0.048920974135398865,0.04564664885401726,0.06373658031225204
0.033838674426078796,0.07562215626239777,0.04653482884168625
0.04563663527369499,0.03689057379961014,0.0165081899613142
0.032201237976551056,0.02011975646018982,0.06814728677272797
0.06355026364326477,0.0645933523774147,0.04942259564995766
0.11770129203796387,0.05761757493019104,0.11168111860752106
0.03915497288107872,0.06527435034513474,0.029674969613552094
0.047726839780807495,0.12779080867767334,0.030891383066773415
0.029049469158053398,0.02091350592672825,0.15480737388134003
0.03812011703848839,0.03145234286785126,0.043920330703258514
0.06012164056301117,0.07400788366794586,0.06623675674200058
0.046992626041173935,0.020645707845687866,0.015063227154314518
0.1051037460565567,0.06135803833603859,0.06653432548046112
0.06668046861886978,0.09683679789304733,0.021824076771736145
0.03076346218585968,0.030671384185552597,0.0469772145152092
0.02033160626888275,0.03700259327888489,0.13970156013965607
0.032802436500787735,0.06438520550727844,0.09284260123968124
0.057214803993701935,0.0560036264359951,0.05510389432311058
0.1126064658164978,0.09697367995977402,0.113472118973732
0.0762651339173317,0.047817863523960114,0.08654908835887909
0.04090607538819313,0.08652310073375702,0.06864701211452484
0.07111036777496338,0.04174455255270004,0.1514364629983902
0.009328263811767101,0.03590357303619385,0.052747830748558044
0.057331472635269165,0.06711766123771667,0.04104917496442795
0.034734442830085754,0.05434868857264519,0.047203999012708664
0.050641462206840515,0.05691668018698692,0.06244954094290733
0.0828075259923935,0.08806131035089493,0.08636206388473511
0.046191781759262085,0.016145896166563034,0.016937758773565292
0.06305333226919174,0.04363821819424629,0.03039003722369671
0.020880868658423424,0.018679115921258926,0.05598114803433418
0.05089682340621948,0.05013148486614227,0.06166929006576538
0.05755177140235901,0.056075163185596466,0.11029790341854095
0.05602867528796196,0.030788015574216843,0.03513897582888603
0.050016824156045914,0.01983213797211647,0.04997887834906578
0.029631443321704865,0.03359817713499069,0.058324363082647324
0.03990838676691055,0.030619438737630844,0.06684225797653198
0.025120949372649193,0.0438886359333992,0.06767841428518295
0.017301222309470177,0.05565202608704567,0.02805771678686142
0.061528969556093216,0.042535435408353806,0.0885373204946518
0.025756457820534706,0.04578021541237831,0.04889978840947151
0.08167732506990433,0.024506686255335808,0.029854100197553635
0.04056217893958092,0.05980675294995308,0.019648462533950806
0.046020448207855225,0.03035174310207367,0.052884530276060104
0.027742937207221985,0.03919937089085579,0.06468793004751205
0.05053658038377762,0.03597037121653557,0.02136843651533127
0.00977215077728033,0.08665356040000916,0.0436626672744751
0.054574716836214066,0.045698363333940506,0.05859215185046196
0.1207212582230568,0.053022898733615875,0.043578147888183594
0.02083149552345276,0.040499620139598846,0.0582660436630249
0.04276102036237717,0.06128016114234924,0.06435178965330124
0.0988757312297821,0.02510778047144413,0.02297193557024002
0.04916410520672798,0.07614261656999588,0.045969508588314056
0.03765260800719261,0.0413203202188015,0.03633826598525047
0.042191702872514725,0.06077846884727478,0.06445097923278809
0.05622578784823418,0.05652144178748131,0.06450534611940384
0.015824969857931137,0.013802708126604557,0.01737556979060173
0.02610607072710991,0.03160126879811287,0.030649611726403236
0.049458011984825134,0.15521329641342163,0.048774514347314835
0.016025826334953308,0.09416589140892029,0.09497035294771194
0.047158047556877136,0.04279431328177452,0.015144966542720795
0.02071218565106392,0.02325693890452385,0.013594154268503189
0.018174393102526665,0.06899089366197586,0.0958617776632309
0.016133807599544525,0.024738013744354248,0.04618507996201515
0.017761684954166412,0.12138909101486206,0.027621343731880188
0.03658756986260414,0.04158344492316246,0.06570006161928177
0.040401607751846313,0.04297197610139847,0.11169731616973877
0.010970869101583958,0.03111087530851364,0.10502889752388
0.1024610623717308,0.057708028703927994,0.11736458539962769
0.08001865446567535,0.06413524597883224,0.05674947425723076
0.057342395186424255,0.021372376009821892,0.06939968466758728
0.06095535680651665,0.049401573836803436,0.03738176077604294
0.09720805287361145,0.030730150640010834,0.023101069033145905
0.07999581098556519,0.038199398666620255,0.10503196716308594
0.06671704351902008,0.028432006016373634,0.009005924686789513
0.0777834802865982,0.03123309649527073,0.025777526199817657
0.10698631405830383,0.08087186515331268,0.0899125188589096
0.047583166509866714,0.06476233154535294,0.018595848232507706
0.03879560902714729,0.03451977297663689,0.030919382348656654
0.06057782843708992,0.0603373721241951,0.050581224262714386
0.09543833881616592,0.060052063316106796,0.03969782218337059
0.07886955887079239,0.05205550044775009,0.03501493111252785
0.06494040787220001,0.07661119103431702,0.1347738653421402
0.035790566354990005,0.03923742473125458,0.023016197606921196
0.039650049060583115,0.02286718599498272,0.01140106376260519
0.04325009137392044,0.040662217885255814,0.0185538399964571
0.08544027805328369,0.05341077595949173,0.10788064450025558
0.019193459302186966,0.014443470165133476,0.02853897027671337
0.020364560186862946,0.03617532551288605,0.026530345901846886
0.04093801602721214,0.022542359307408333,0.024622291326522827
0.024904530495405197,0.029125526547431946,0.025999095290899277
0.011901657097041607,0.0470493882894516,0.04167594760656357
0.04204506799578667,0.04021444171667099,0.03363388776779175
0.03016187995672226,0.0391993448138237,0.0299595445394516
0.04876481741666794,0.0401376336812973,0.0255826897919178
0.020723028108477592,0.012765904888510704,0.03282927721738815
0.03451390191912651,0.07812781631946564,0.08205540478229523
0.09096682816743851,0.10701733827590942,0.08058689534664154
0.026775753125548363,0.02722308598458767,0.015099285170435905
0.07204724848270416,0.05257002264261246,0.08157316595315933
0.06783561408519745,0.07138419151306152,0.03267694264650345
0.024113444611430168,0.058226656168699265,0.017864979803562164
0.04858924075961113,0.0389314740896225,0.05887461081147194
0.060274459421634674,0.055502694100141525,0.09921789914369583
0.0787886455655098,0.04982444643974304,0.07283026725053787
0.07200449705123901,0.06207960471510887,0.05426062270998955
0.047418851405382156,0.08486484736204147,0.0717393010854721
0.015760034322738647,0.018797781318426132,0.028739115223288536
0.04355940222740173,0.033613692969083786,0.0318416953086853
0.09881563484668732,0.058430496603250504,0.05663703754544258
0.07672220468521118,0.061254024505615234,0.02198411151766777
0.008327260613441467,0.020417116582393646,0.0742483139038086
0.024262256920337677,0.034934815019369125,0.0546000674366951
0.16991208493709564,0.05955115705728531,0.0696043074131012
0.06157289817929268,0.08178390562534332,0.02139263041317463
0.07849156856536865,0.04692868888378143,0.0648161992430687
0.07965493947267532,0.048071958124637604,0.041275251656770706
0.022604184225201607,0.08845879137516022,0.13252903521060944
0.0708986222743988,0.1647440791130066,0.07025685161352158
0.08276800811290741,0.015875456854701042,0.07242994010448456
0.06292300671339035,0.020703792572021484,0.023590750992298126
0.09836424142122269,0.10330195724964142,0.1432681828737259
0.0741923451423645,0.07160334289073944,0.0545320101082325
0.06717774271965027,0.12337907403707504,0.024032851681113243
0.027597103267908096,0.016677813604474068,0.03570179641246796
0.055730994790792465,0.0655953511595726,0.08367817848920822
0.0400581881403923,0.02473377250134945,0.03200354427099228
0.01870264858007431,0.05190090090036392,0.029255123808979988
0.06702065467834473,0.07288601249456406,0.023804733529686928
0.06378700584173203,0.04613630846142769,0.05455944687128067
0.08727806806564331,0.04936499893665314,0.04476305469870567
0.07281367480754852,0.07672958821058273,0.07462111115455627
0.17913305759429932,0.09908970445394516,0.0990259125828743
0.07517331838607788,0.04384666308760643,0.0522552952170372
0.04148106649518013,0.08065897226333618,0.0853261649608612
0.02822195366024971,0.013830022886395454,0.07094158977270126
0.034445784986019135,0.011355223134160042,0.024908114224672318
0.0789598822593689,0.03097112663090229,0.028879303485155106
0.0455266572535038,0.02390645071864128,0.012826601043343544
0.05038251355290413,0.04511082544922829,0.017969639971852303
0.07191023975610733,0.028598202392458916,0.05636262148618698
0.03308872878551483,0.04797773063182831,0.04480782896280289
0.03317128121852875,0.06912658363580704,0.04127343371510506
0.007913767360150814,0.036049071699380875,0.034361038357019424
0.055114518851041794,0.024237941950559616,0.06030900031328201
0.03830961510539055,0.03933146595954895,0.029395846650004387
0.06325399875640869,0.045181695371866226,0.028633570298552513
0.04004163667559624,0.04575001448392868,0.05038838088512421
0.061544373631477356,0.054193634539842606,0.04907672852277756
0.053214799612760544,0.054420486092567444,0.043751176446676254
0.0894225537776947,0.12704916298389435,0.0662846714258194
0.07262521982192993,0.09330920875072479,0.047476381063461304
0.0745927020907402,0.10095392167568207,0.1919184923171997
0.08316153287887573,0.05599218234419823,0.046716392040252686
0.06378067284822464,0.07604078203439713,0.09091071039438248
0.082229845225811,0.09751174598932266,0.10252561420202255
0.0366189144551754,0.08238163590431213,0.041161686182022095
0.02314985916018486,0.028256982564926147,0.03339345008134842
0.018669357523322105,0.0827464908361435,0.013004342094063759
0.054778311401605606,0.035519056022167206,0.02062765136361122
0.038827285170555115,0.014442396350204945,0.09516097605228424
0.044063497334718704,0.03757122531533241,0.1581675410270691
0.047732044011354446,0.04885653033852577,0.05685132369399071
0.08794116228818893,0.05961475148797035,0.02717309072613716
0.15614673495292664,0.05707601457834244,0.046633921563625336
0.047996070235967636,0.025243448093533516,0.018102722242474556
0.06243417039513588,0.03578483313322067,0.03284812346100807
0.0718446671962738,0.05110504478216171,0.057969991117715836
0.024220379069447517,0.02226482704281807,0.016852382570505142
0.04552892595529556,0.0521741546690464,0.03415093943476677
0.030577819794416428,0.013473281636834145,0.04694495350122452
0.040124841034412384,0.023895088583230972,0.023773860186338425
0.013027495704591274,0.06595022231340408,0.031279318034648895
0.023364150896668434,0.042488887906074524,0.10530613362789154
0.04744444787502289,0.008924574591219425,0.031023789197206497
0.0353047251701355,0.06442195177078247,0.04491683095693588
0.052084892988204956,0.02970866858959198,0.07936394959688187
0.0980783998966217,0.04395414888858795,0.1466856747865677
0.03984487056732178,0.08809109032154083,0.0555805005133152
0.09922005981206894,0.10200095921754837,0.061269596219062805
0.07001610845327377,0.06324044615030289,0.062410108745098114
0.055218011140823364,0.05239951238036156,0.06219182908535004
0.031718384474515915,0.03006136789917946,0.03184518218040466
0.0796390250325203,0.19616831839084625,0.15628944337368011
0.06846476346254349,0.036043912172317505,0.07185666263103485
0.10227224975824356,0.11803287267684937,0.12748031318187714
0.05801771581172943,0.0385860800743103,0.027319224551320076
0.041597556322813034,0.06102967634797096,0.02582687884569168
0.03163646161556244,0.051003679633140564,0.054685574024915695
0.06004082038998604,0.04246297851204872,0.05092618241906166
0.03233642503619194,0.05932595208287239,0.18933303654193878
0.05408301576972008,0.1325896978378296,0.04929341748356819
0.06846451014280319,0.042477432638406754,0.01875595934689045
0.052675511687994,0.055795442312955856,0.07899094372987747
0.0628810003399849,0.059402745217084885,0.056297704577445984
0.036032840609550476,0.05528031662106514,0.02001623995602131
0.06365553289651871,0.03671453520655632,0.050077885389328
0.12426808476448059,0.03918635472655296,0.020668556913733482
0.07954933494329453,0.06692676246166229,0.04483708366751671
0.027791712433099747,0.08338700234889984,0.058926668018102646
0.08567764610052109,0.03410714492201805,0.021303972229361534
0.06985533982515335,0.06079768016934395,0.054049067199230194
0.16092507541179657,0.1084652841091156,0.0801871046423912
0.0895305722951889,0.10393714904785156,0.09755167365074158
0.03979334980249405,0.06399960815906525,0.04242533817887306
0.0515160858631134,0.04137998819351196,0.05170270800590515
0.034200556576251984,0.048946719616651535,0.07665234059095383
0.2033461630344391,0.13750407099723816,0.05463717505335808
0.11057236045598984,0.030451491475105286,0.044795870780944824
0.029170271009206772,0.041815098375082016,0.052572064101696014
0.011974642053246498,0.01958714984357357,0.019708829000592232
0.11026423424482346,0.11145329475402832,0.09790319949388504
0.041435204446315765,0.14820359647274017,0.08896204084157944
0.018457980826497078,0.011469120159745216,0.02782341279089451
0.015239656902849674,0.010345143266022205,0.0254629198461771
0.025305278599262238,0.024878691881895065,0.030891314148902893
0.06420229375362396,0.08759528398513794,0.10767912864685059
0.11215680837631226,0.04929415136575699,0.020802518352866173
0.02771436609327793,0.015876157209277153,0.02253660187125206
0.01905853860080242,0.05050617456436157,0.035186972469091415
0.056103240698575974,0.04170163348317146,0.0768241211771965
0.013020215556025505,0.0846766009926796,0.04488924518227577
0.043375417590141296,0.04576156288385391,0.061958104372024536
0.2124146670103073,0.027846381068229675,0.04485121741890907
0.11925960332155228,0.07468602806329727,0.02454463019967079
0.02522168681025505,0.03703629598021507,0.033471282571554184
0.06363455951213837,0.051187630742788315,0.0931338518857956
0.05007423833012581,0.04531888663768768,0.05467888340353966
0.029641609638929367,0.028301414102315903,0.022885996848344803
0.034670356661081314,0.05796695873141289,0.04359753802418709
0.03869790583848953,0.0626894012093544,0.04319547116756439
0.02903701551258564,0.04373820498585701,0.04925801232457161
0.030227750539779663,0.022025620564818382,0.04645807296037674
0.037380002439022064,0.1361529529094696,0.02406066097319126
0.06027378886938095,0.04819270968437195,0.10353511571884155
0.02920260652899742,0.03228297457098961,0.05464114993810654
0.06864678114652634,0.04672462120652199,0.03436998650431633
0.02441745065152645,0.036998361349105835,0.007142101880162954
0.010155915282666683,0.010820578783750534,0.024047547951340675
0.028117286041378975,0.0372493639588356,0.039769165217876434
0.05998663976788521,0.036889441311359406,0.10874849557876587
0.03577115386724472,0.04740109667181969,0.024502376094460487
0.11864439398050308,0.09238764643669128,0.0665193423628807
0.0870421752333641,0.05951312556862831,0.08326268941164017
0.031240645796060562,0.056230589747428894,0.03791215270757675
0.027222981676459312,0.04533020034432411,0.050814561545848846
0.035346582531929016,0.03656374290585518,0.024594057351350784
0.008831992745399475,0.03234954923391342,0.06187114492058754
0.024541305378079414,0.015770576894283295,0.04249444603919983
0.05876009911298752,0.06985409557819366,0.050737179815769196
0.06472020596265793,0.02107502706348896,0.06558414548635483
0.04170661047101021,0.08596722781658173,0.02502201870083809
0.01260815653949976,0.015190867707133293,0.015804234892129898
0.08193358778953552,0.02236110530793667,0.035470180213451385
0.03161395713686943,0.0530533492565155,0.0928349420428276
0.06288158148527145,0.04448973014950752,0.026217008009552956
0.09124068170785904,0.03889121115207672,0.08862166851758957
0.06711625307798386,0.10672157257795334,0.04577340558171272
0.008803767152130604,0.013909603469073772,0.01958300545811653
0.05473233759403229,0.07036605477333069,0.16648267209529877
0.06117819622159004,0.05544282868504524,0.03586526960134506
0.04034171625971794,0.06258668005466461,0.06680046021938324
0.025543855503201485,0.06390275061130524,0.039779920130968094
0.03988394886255264,0.03227102756500244,0.02420664019882679
0.027575690299272537,0.03635689616203308,0.03774145245552063
0.060882989317178726,0.014831017702817917,0.08872316777706146
0.03319413587450981,0.019135018810629845,0.03047931380569935
0.03767215088009834,0.026364490389823914,0.07409563660621643
0.02847292087972164,0.031914934515953064,0.02517479658126831
0.0346653014421463,0.05489777773618698,0.03982968628406525
0.12965261936187744,0.10828286409378052,0.1163419559597969
0.11166968941688538,0.11842740327119827,0.09210654348134995
0.09406640380620956,0.10800272226333618,0.0745268240571022
0.03376651182770729,0.03400178626179695,0.07782892882823944
0.04813094064593315,0.06762440502643585,0.10521223396062851
0.026641225442290306,0.06061432138085365,0.06512878835201263
0.10063446313142776,0.08580871671438217,0.1135852038860321
0.14950139820575714,0.09936951845884323,0.0595308393239975
0.16242057085037231,0.05724739655852318,0.03565123677253723
0.04708729311823845,0.05100999400019646,0.040508899837732315
0.037998948246240616,0.08932836353778839,0.051689889281988144
0.04811848700046539,0.051443152129650116,0.04359320551156998
0.049152567982673645,0.06172940135002136,0.07220114767551422
0.05306973680853844,0.06707797944545746,0.059798963367938995
0.06423711031675339,0.06153781712055206,0.0594162680208683
0.04372540861368179,0.07353155314922333,0.027724532410502434
0.036886490881443024,0.10026844590902328,0.031122397631406784
0.062405265867710114,0.05866023898124695,0.024172738194465637
0.03667006269097328,0.018143758177757263,0.0255518089979887
0.07111158967018127,0.03310047835111618,0.06765688210725784
0.03085082583129406,0.0672164186835289,0.04821692779660225
0.06092793494462967,0.07673881947994232,0.1702631413936615
0.021162502467632294,0.01937517710030079,0.048365019261837006
0.08446253836154938,0.057147566229104996,0.06861679255962372
0.05593198910355568,0.035651519894599915,0.029804755002260208
0.012676019221544266,0.07912822812795639,0.04183866083621979
0.1442381888628006,0.029210371896624565,0.11703622341156006
0.048962611705064774,0.05252919718623161,0.07339944690465927
0.02501864917576313,0.028187217190861702,0.06969708949327469
0.08737397193908691,0.05874404311180115,0.033422864973545074
0.04148690775036812,0.03139929845929146,0.03142944350838661
0.040139373391866684,0.03330162912607193,0.04727229103446007
0.025614261627197266,0.03630140423774719,0.03700876608490944
0.12335024774074554,0.12606191635131836,0.057150740176439285
0.01909622736275196,0.027118787169456482,0.021779658272862434
0.03306660056114197,0.0377468466758728,0.06518734246492386
0.006715640425682068,0.030985279008746147,0.04158831760287285
0.0592571422457695,0.013444175943732262,0.03266816586256027
0.05260775238275528,0.06840398162603378,0.0258452408015728
0.10900512337684631,0.11710697412490845,0.0904248058795929
0.07204177230596542,0.024668525904417038,0.055506836622953415
0.029614683240652084,0.027875743806362152,0.02815946377813816
0.08778708428144455,0.038539450615644455,0.06125805899500847
0.04241209477186203,0.04141713306307793,0.04355495795607567
0.04574492573738098,0.03701337054371834,0.05980333685874939
0.05088421329855919,0.043563369661569595,0.03720558062195778
0.05117626488208771,0.09870383143424988,0.045561566948890686
0.03611178696155548,0.04329818859696388,0.07244084030389786
0.044345151633024216,0.032205961644649506,0.041946154087781906
0.10712878406047821,0.14672690629959106,0.07149171084165573
0.02123410999774933,0.026979027315974236,0.020422911271452904
0.060304079204797745,0.05588569864630699,0.047854095697402954
0.04843081906437874,0.06715540587902069,0.058263249695301056
0.056518781930208206,0.06199299171566963,0.08900879323482513
0.05021745339035988,0.03330139443278313,0.06308016180992126
0.037219442427158356,0.0583285428583622,0.041742075234651566
0.010984324850142002,0.028265004977583885,0.012740799225866795
0.018091067671775818,0.016977645456790924,0.02610735408961773
0.04862990602850914,0.025294115766882896,0.010522355325520039
0.030219512060284615,0.025469480082392693,0.01005801185965538
0.03681055083870888,0.021694891154766083,0.0296814925968647
0.025482552126049995,0.042050980031490326,0.06144300848245621
0.021556280553340912,0.02131573297083378,0.012292851693928242
0.06262397021055222,0.02814425900578499,0.03956969082355499
0.14318537712097168,0.06102277338504791,0.07199568301439285
0.039202384650707245,0.060464609414339066,0.0818273052573204
0.01758655719459057,0.01779180020093918,0.016461804509162903
0.03211015835404396,0.03149532899260521,0.01990494318306446
0.02565193735063076,0.02808278612792492,0.006591275334358215
0.018031613901257515,0.01854698546230793,0.034627221524715424
0.023069215938448906,0.01396727655082941,0.011277975514531136
0.03745506703853607,0.02521994523704052,0.06359777599573135
0.06285297870635986,0.050854094326496124,0.10814343392848969
0.025935355573892593,0.049274880439043045,0.03713520988821983
0.055722057819366455,0.013409852981567383,0.014095223508775234
0.02934330329298973,0.01475075539201498,0.04550937935709953
0.035398900508880615,0.047077666968107224,0.06839162856340408
0.05073302239179611,0.03631756827235222,0.06493180245161057
0.058551643043756485,0.13855867087841034,0.09994576126337051
0.07903749495744705,0.11302951723337173,0.13612130284309387
0.03243003785610199,0.057078152894973755,0.028400257229804993
0.03400193899869919,0.03747060149908066,0.03321614861488342
0.024462386965751648,0.007263752166181803,0.02839222177863121
0.09446527808904648,0.024463703855872154,0.07941292971372604
0.06548690795898438,0.025613296777009964,0.02861146442592144
0.09057045727968216,0.043934740126132965,0.05335570126771927
0.031090613454580307,0.03396066650748253,0.03715197741985321
0.028763363137841225,0.017570294439792633,0.01558713149279356
0.01605188101530075,0.024317104369401932,0.057673659175634384
0.009130115620791912,0.07287146151065826,0.08002080768346786
0.02796531841158867,0.04893695190548897,0.03870997950434685
0.023698346689343452,0.059606872498989105,0.04594605043530464
0.03363233432173729,0.11921558529138565,0.02601102739572525
0.025586625561118126,0.04471204802393913,0.03179944306612015
0.03585109859704971,0.024099798873066902,0.05486612021923065
0.04026278108358383,0.055255770683288574,0.05174867808818817
0.05049342289566994,0.05055831000208855,0.06158139184117317
0.04692259430885315,0.06417228281497955,0.060812387615442276
0.07209782302379608,0.02791421301662922,0.03149483725428581
0.021508753299713135,0.03830966725945473,0.026242250576615334
0.02316068857908249,0.017851829528808594,0.05445842444896698
0.027465682476758957,0.04151095822453499,0.035980768501758575
0.01709374599158764,0.025225527584552765,0.04335888475179672
0.017916038632392883,0.04205995053052902,0.04208076000213623
0.03256659209728241,0.013753283768892288,0.05075480416417122
0.06364356726408005,0.08939456939697266,0.09291739761829376
0.0447448268532753,0.06625254452228546,0.03616314381361008
0.04525120556354523,0.08497442305088043,0.08430938422679901
0.05413179472088814,0.04038721323013306,0.041522469371557236
0.05192207917571068,0.057346172630786896,0.05923910811543465
0.06585431098937988,0.04080343618988991,0.04104683920741081
0.0532890260219574,0.061464574187994,0.045281365513801575
0.03579999879002571,0.047331538051366806,0.037850696593523026
0.03359013423323631,0.028216298669576645,0.03183339536190033
0.0686781108379364,0.07144796848297119,0.06837212294340134
0.0687776654958725,0.04897332936525345,0.06288467347621918
0.07668258249759674,0.14877448976039886,0.019502725452184677
0.05720360577106476,0.05237145721912384,0.03505226969718933
0.0465911440551281,0.03483764827251434,0.028167949989438057
0.08202843368053436,0.03286679461598396,0.019931981340050697
0.02534908428788185,0.01434255763888359,0.014018313027918339
0.011621036566793919,0.03854399919509888,0.01484854705631733
0.08935875445604324,0.04815273359417915,0.043547339737415314
0.04560121148824692,0.08426182717084885,0.051579639315605164
0.08805707097053528,0.03968552127480507,0.08180823922157288
0.08264823257923126,0.045431867241859436,0.048440463840961456
0.04873022437095642,0.05148859694600105,0.08841006457805634
0.07803836464881897,0.11391087621450424,0.04148182272911072
0.05947865918278694,0.04190488159656525,0.019265377894043922
0.03934813663363457,0.05102811008691788,0.1152472123503685
0.020737428218126297,0.05123690143227577,0.03966597840189934
0.023061875253915787,0.20260626077651978,0.02125292271375656
0.10098996013402939,0.09165341407060623,0.065648652613163
0.04672512039542198,0.04816211760044098,0.15368209779262543
0.03384127840399742,0.11175324767827988,0.058082982897758484
0.0285972747951746,0.15236486494541168,0.07887493073940277
0.03225193917751312,0.12516938149929047,0.10004318505525589
0.049029480665922165,0.030347725376486778,0.028168758377432823
0.056129347532987595,0.06830056011676788,0.026156608015298843
0.04211621731519699,0.04338168725371361,0.048769306391477585
0.03869622200727463,0.05386083200573921,0.046987783163785934
0.01380955707281828,0.11517520248889923,0.06730714440345764
0.1616249531507492,0.0392003208398819,0.07430357486009598
0.046598777174949646,0.021292967721819878,0.032296255230903625
0.083169125020504,0.031382713466882706,0.04893971234560013
0.11204587668180466,0.15569528937339783,0.0970752015709877
0.052209921181201935,0.03167295828461647,0.07946281880140305
0.04741768166422844,0.0505141019821167,0.06329433619976044
0.0414312481880188,0.029615724459290504,0.03259636461734772
0.06595244258642197,0.09196511656045914,0.0668444037437439
0.10311289876699448,0.07735103368759155,0.08228939771652222
0.06485939025878906,0.03872698172926903,0.02853548340499401
0.022576339542865753,0.06894294917583466,0.028267499059438705
0.025852525606751442,0.1652747541666031,0.12071606516838074
0.030642343685030937,0.1310056895017624,0.02384975552558899
0.037387192249298096,0.06390848755836487,0.027583172544836998
0.03397646173834801,0.01236489973962307,0.05749443173408508
0.07777821272611618,0.03637836501002312,0.03599826991558075
0.08550292253494263,0.05255294591188431,0.047903724014759064
0.05104764550924301,0.03303404897451401,0.062179017812013626
0.017850525677204132,0.03306761011481285,0.02273368462920189
0.06388136744499207,0.02603183686733246,0.03405755013227463
0.03516807034611702,0.05634991079568863,0.07338147610425949
0.11570212990045547,0.0501830130815506,0.05007396638393402
0.05220026150345802,0.036357332020998,0.06739716976881027
0.06548379361629486,0.13370372354984283,0.031818587332963943
0.021996017545461655,0.06311694532632828,0.02841133251786232
0.01569291204214096,0.02600596286356449,0.045378178358078
0.1252506673336029,0.06479180604219437,0.04434403404593468
0.031201250851154327,0.03395097702741623,0.042370911687612534
0.03234793618321419,0.0751056969165802,0.043229393661022186
0.0399104468524456,0.04278169572353363,0.04496290534734726
0.06325890868902206,0.06650765985250473,0.07569285482168198
0.04422484710812569,0.060312941670417786,0.0282081700861454
0.055067360401153564,0.06182447448372841,0.04016830772161484
0.060691557824611664,0.04390230402350426,0.052922021597623825
0.03331495076417923,0.06184752658009529,0.05881690979003906
0.09133685380220413,0.06613687425851822,0.05146859213709831
0.07224433869123459,0.006813765969127417,0.08133704215288162
0.018988803029060364,0.07409189641475677,0.05344619229435921
0.027029739692807198,0.03278537467122078,0.03219524398446083
0.08628338575363159,0.04736623540520668,0.03400985896587372
0.07413055747747421,0.10192283987998962,0.14936105906963348
0.060242317616939545,0.054991018027067184,0.06310026347637177
0.05776279792189598,0.04329577088356018,0.0828799307346344
0.0907413512468338,0.07074267417192459,0.0813683494925499
0.040745481848716736,0.058594703674316406,0.07214720547199249
0.03681585565209389,0.021672280505299568,0.0492887869477272
0.025678973644971848,0.07835319638252258,0.07843755930662155
0.04250901937484741,0.1757107675075531,0.015345437452197075
0.05171922594308853,0.034155625849962234,0.06712864339351654
0.07008729875087738,0.04771946370601654,0.04152428358793259
0.07560998201370239,0.06183185055851936,0.11575202643871307
0.08979213237762451,0.028945408761501312,0.12543538212776184
0.027935484424233437,0.012836103327572346,0.019882280379533768
0.038309063762426376,0.04239477962255478,0.1274053305387497
0.015845386311411858,0.018666565418243408,0.016275061294436455
0.025926094502210617,0.038589514791965485,0.044715382158756256
0.11345121264457703,0.05133417993783951,0.07083730399608612
0.09197145700454712,0.030876465141773224,0.04017822816967964
0.022352244704961777,0.1667647808790207,0.0312943309545517
0.0267863217741251,0.030782105401158333,0.11678232997655869
0.11653941869735718,0.11305388808250427,0.04192901402711868
0.039382096379995346,0.020988380536437035,0.020403839647769928
0.04148726910352707,0.05312294512987137,0.08846260607242584
0.01602046564221382,0.021509600803256035,0.02837505377829075
0.020064091309905052,0.08378755301237106,0.03937486931681633
0.0285755917429924,0.10540803521871567,0.029435258358716965
0.08680751919746399,0.09426439553499222,0.10346491634845734
0.09938056766986847,0.07227194309234619,0.07545942813158035
0.060233376920223236,0.08199286460876465,0.08954562991857529
0.05260319635272026,0.04384683817625046,0.09345979243516922
0.012485050596296787,0.09337896853685379,0.014765553176403046
0.0811251699924469,0.049596983939409256,0.08948046714067459
0.1041862890124321,0.07968077808618546,0.06134187430143356
0.07018733769655228,0.0836116299033165,0.053407296538352966
0.04956350103020668,0.06427384167909622,0.057413432747125626
0.03425892814993858,0.1267499029636383,0.06244322285056114
0.08884458243846893,0.14482815563678741,0.030725033953785896
0.06771333515644073,0.22750331461429596,0.12453772872686386
0.032428763806819916,0.04452890530228615,0.12267886847257614
0.01606278494000435,0.054311010986566544,0.12358419597148895
0.09567420184612274,0.03942274674773216,0.029922252520918846
0.061398569494485855,0.08500239253044128,0.057287734001874924
0.06149982288479805,0.044401783496141434,0.035802338272333145
0.04324294999241829,0.032123055309057236,0.044072188436985016
0.05468763783574104,0.048494160175323486,0.01921001821756363
0.01781110279262066,0.03359561786055565,0.07157114148139954
0.04487641900777817,0.04115675017237663,0.0418943352997303
0.03632109984755516,0.026080291718244553,0.031851015985012054
0.051589254289865494,0.13215048611164093,0.09184177964925766
0.15620170533657074,0.09075164049863815,0.17287838459014893
0.020959433168172836,0.005425339564681053,0.019645897671580315
0.10312182456254959,0.05096052214503288,0.09942934662103653
0.016061341390013695,0.04682644456624985,0.03134232759475708
0.016003385186195374,0.024039970710873604,0.04423784837126732
0.025779452174901962,0.030642086640000343,0.030969617888331413
0.04183954745531082,0.057568296790122986,0.03537740930914879
0.07057468593120575,0.07322049140930176,0.020414866507053375
0.03704328462481499,0.03787738084793091,0.048724547028541565
0.07824680209159851,0.05935348942875862,0.06928014010190964
0.11887367814779282,0.031036976724863052,0.12393613904714584
0.04078259319067001,0.05918215960264206,0.04263130947947502
0.050447914749383926,0.041665613651275635,0.014211735688149929
0.027112148702144623,0.0611405111849308,0.06283654272556305
0.10989874601364136,0.09391632676124573,0.08741771429777145
0.04676347225904465,0.03202167525887489,0.0407840795814991
0.046706423163414,0.12588490545749664,0.13203935325145721
0.03825525566935539,0.02401941642165184,0.0918179377913475
0.023782553151249886,0.028402261435985565,0.05435189977288246
0.04532552883028984,0.06382288038730621,0.021522756665945053
0.04696463420987129,0.0592542365193367,0.058995869010686874
0.09645054489374161,0.06821023672819138,0.06139419972896576
0.04434233903884888,0.02420482598245144,0.020721709355711937
0.08123088628053665,0.05171440541744232,0.03576402738690376
0.06217406317591667,0.05684078857302666,0.046056170016527176
0.045070137828588486,0.05048445239663124,0.05796144902706146
0.08354072272777557,0.07105347514152527,0.09810905158519745
0.04560747370123863,0.07250279188156128,0.06621028482913971
0.03782125562429428,0.10754892230033875,0.07748701423406601
0.05039491504430771,0.06763605773448944,0.10761196911334991
0.07339143007993698,0.0697304755449295,0.06511232256889343
0.10372509062290192,0.0292561836540699,0.0750625729560852
0.06453412771224976,0.05393803492188454,0.04331907257437706
0.10298330336809158,0.0492020845413208,0.05534321814775467
0.029719645157456398,0.048587605357170105,0.03809017315506935
0.051397114992141724,0.04541322961449623,0.05454500764608383
0.10367287695407867,0.04131536930799484,0.026853404939174652
0.0586303286254406,0.01882863976061344,0.06871236860752106
0.016248242929577827,0.057880718261003494,0.024912336841225624
0.03889524191617966,0.026943812146782875,0.050717879086732864
0.038815826177597046,0.06439784169197083,0.09318998456001282
0.029924301430583,0.04922321438789368,0.03870876878499985
0.03244733065366745,0.022402727976441383,0.033697985112667084
0.07014308869838715,0.0883607417345047,0.0662255510687828
0.03411402553319931,0.03314436227083206,0.031035685911774635
0.03634573519229889,0.03758029639720917,0.014892466366291046
0.025531530380249023,0.045082710683345795,0.03484321013092995
0.002636728575453162,0.02107129618525505,0.024868417531251907
0.009401656687259674,0.013083450496196747,0.08437227457761765
0.06342087686061859,0.005349625833332539,0.01986486092209816
0.02752385102212429,0.023615814745426178,0.03554285690188408
0.025869205594062805,0.06367036700248718,0.056790344417095184
0.03655215725302696,0.054049715399742126,0.05997014418244362
0.0333462730050087,0.08469998091459274,0.031553056091070175
0.04525301232933998,0.06344150006771088,0.07690564543008804
0.019297420978546143,0.03218601644039154,0.030482754111289978
0.027869947254657745,0.032372795045375824,0.030534587800502777
0.03162933886051178,0.047065600752830505,0.07182668149471283
0.035793982446193695,0.0835944339632988,0.04206240922212601
0.05709271505475044,0.1277141571044922,0.06065226346254349
0.05759111046791077,0.05102638155221939,0.03561508283019066
0.05451695993542671,0.017906051129102707,0.0236302949488163
0.0419577918946743,0.06786439567804337,0.026275737211108208
0.020385826006531715,0.017648067325353622,0.03993398696184158
0.01939421333372593,0.03102915920317173,0.020933039486408234
0.061679184436798096,0.039799269288778305,0.040904849767684937
0.027302902191877365,0.013760779984295368,0.0305497944355011
0.03450244292616844,0.05304579809308052,0.04379860311746597
0.07398244738578796,0.09149255603551865,0.07869286835193634
0.060782015323638916,0.06614052504301071,0.05677298456430435
0.04438251629471779,0.07863245904445648,0.10228628665208817
0.03635905310511589,0.025455905124545097,0.07808689773082733
0.033657874912023544,0.1162484809756279,0.028053654357790947
0.04002319276332855,0.03823651373386383,0.027993448078632355
0.009481226094067097,0.039479754865169525,0.11047108471393585
0.031241891905665398,0.021205265074968338,0.0169866681098938
0.014497166499495506,0.011781562119722366,0.012688307091593742
0.01600627787411213,0.012631738558411598,0.0711350068449974
0.06574743986129761,0.03201707825064659,0.05046943202614784
0.04566795751452446,0.07138647139072418,0.05177940055727959
0.01276334933936596,0.03665538132190704,0.038250017911195755
0.06240123510360718,0.041500791907310486,0.11700621247291565
0.04353666305541992,0.023559676483273506,0.024251246824860573
0.016526272520422935,0.00931057333946228,0.02734946832060814
0.038919318467378616,0.04162518307566643,0.09904006868600845
0.03758284077048302,0.05872596800327301,0.062162358313798904
0.020147865638136864,0.013714117929339409,0.015739383175969124
0.05247030779719353,0.021362079307436943,0.05669654160737991
0.03453362360596657,0.13916002213954926,0.10025125741958618
0.06998803466558456,0.037053681910037994,0.06651610136032104
0.03103434108197689,0.04457548260688782,0.0852932408452034
0.05156572908163071,0.015137892216444016,0.01786375418305397
0.043877433985471725,0.015082724392414093,0.014071071520447731
0.13124431669712067,0.029594864696264267,0.04451953247189522
0.01968385837972164,0.044128209352493286,0.05124467983841896
0.0557064451277256,0.057453397661447525,0.06023439019918442
0.013703303411602974,0.016986144706606865,0.014964238740503788
0.03292977064847946,0.16366352140903473,0.0969669297337532
0.10969629883766174,0.04901857301592827,0.03312551602721214
0.05638632923364639,0.06122707948088646,0.09143679589033127
0.0475078821182251,0.04363097995519638,0.07692880928516388
0.12748749554157257,0.036548204720020294,0.10244931280612946
0.05840262398123741,0.1771816462278366,0.08180931955575943
0.03548475727438927,0.04492681100964546,0.016562798991799355
0.05179956927895546,0.16359843313694,0.05619971454143524
0.030265333130955696,0.053675565868616104,0.03813723847270012
0.02797156199812889,0.023651650175452232,0.03448355942964554
0.05176341533660889,0.03624401614069939,0.04561323672533035
0.048744894564151764,0.06770453602075577,0.020848983898758888
0.06186530366539955,0.04579053446650505,0.0731230229139328
0.017325712367892265,0.029448898509144783,0.06994342803955078
0.047746606171131134,0.022734779864549637,0.012181106023490429
0.02003682777285576,0.025155233219265938,0.04997597634792328
0.022937245666980743,0.013598009943962097,0.008402823470532894
0.05576304718852043,0.0744355171918869,0.044869303703308105
0.03914916515350342,0.023181134834885597,0.031430140137672424
0.04104520007967949,0.036471832543611526,0.06199108064174652
0.08414536714553833,0.09310916811227798,0.04257040470838547
0.01768178679049015,0.015576211735606194,0.01912885345518589
0.03916070610284805,0.028242314234375954,0.03989175334572792
0.08864064514636993,0.044902388006448746,0.049253199249506
0.045413751155138016,0.041103336960077286,0.16001173853874207
0.025168756023049355,0.011863241903483868,0.06172286346554756
0.021327098831534386,0.009950033389031887,0.08153373748064041
0.04730843007564545,0.05207955837249756,0.0446513295173645
0.034115470945835114,0.05987758934497833,0.045775797218084335
0.04216744378209114,0.043154872953891754,0.052598051726818085
0.04725342616438866,0.038187820464372635,0.04063790291547775
0.10876408964395523,0.09565578401088715,0.08919817209243774
0.05725840479135513,0.029643090441823006,0.06099405512213707
0.08878728002309799,0.07179290801286697,0.03376365825533867
0.023071415722370148,0.03632458299398422,0.05816027894616127
0.03852572664618492,0.014726962894201279,0.008507911115884781
0.17140159010887146,0.020885832607746124,0.04108314961194992
0.05584680289030075,0.030119560658931732,0.0321539081633091
0.028486870229244232,0.041942253708839417,0.05583905801177025
0.016478508710861206,0.015969054773449898,0.0269631315022707
0.08451779931783676,0.03374833986163139,0.057738758623600006
0.029773343354463577,0.02649882063269615,0.04380045458674431
0.028769489377737045,0.027238601818680763,0.03277265280485153
0.013793102465569973,0.05523570254445076,0.043460723012685776
0.021024325862526894,0.021151993423700333,0.016505615785717964
0.06579423695802689,0.03621849790215492,0.020057594403624535
0.020612705498933792,0.023893550038337708,0.0467294417321682
0.0065110959112644196,0.01641673780977726,0.011151575483381748
0.010478879325091839,0.014220203272998333,0.021125812083482742
0.03521597757935524,0.24785681068897247,0.026261432096362114
0.05270262062549591,0.036192528903484344,0.04930046200752258
0.040068965405225754,0.01152005884796381,0.04178885370492935
0.028005553409457207,0.022012263536453247,0.03558213263750076
0.017381513491272926,0.03707365319132805,0.03888487070798874
0.0390128493309021,0.024177689105272293,0.03817490488290787
0.011015983298420906,0.03979656845331192,0.044754110276699066
0.013327431865036488,0.07255382090806961,0.009504550136625767
0.027404112741351128,0.10962506383657455,0.016898365691304207
0.05058935657143593,0.03080369159579277,0.04011087492108345
0.42753931879997253,0.015417397953569889,0.04199903458356857
0.039623916149139404,0.042816709727048874,0.07533036172389984
0.03880276903510094,0.03667685389518738,0.042373593896627426
0.06127585098147392,0.009643487632274628,0.03873837739229202
0.05399659648537636,0.018725154921412468,0.015597090125083923
0.08227533102035522,0.04978788271546364,0.07043635845184326
0.05323759838938713,0.10665004700422287,0.10985163599252701
0.0521598756313324,0.021223049610853195,0.04044364392757416
0.013929847627878189,0.014584893360733986,0.02873767539858818
0.02468946762382984,0.01033331174403429,0.019446613267064095
0.04800301417708397,0.1349605768918991,0.10723976045846939
0.06635084748268127,0.05057046562433243,0.06764045357704163
0.06992033123970032,0.12753456830978394,0.04540978744626045
0.027135681360960007,0.03207356855273247,0.03186824917793274
0.0654950886964798,0.11202777177095413,0.1323593407869339
0.05694492161273956,0.05305067077279091,0.07242944091558456
0.05148874595761299,0.017267463728785515,0.03185135871171951
0.06103292480111122,0.049423135817050934,0.04565559700131416
0.02469378337264061,0.053290460258722305,0.12380039691925049
0.014507212676107883,0.09017639607191086,0.10159855335950851
0.02820439264178276,0.06257254630327225,0.02902168221771717
0.03072124719619751,0.015383663587272167,0.03384006768465042
0.08134680986404419,0.05711345747113228,0.07273216545581818
0.023527180776000023,0.09495332092046738,0.0677030012011528
0.031974297016859055,0.06247013062238693,0.0717889592051506
0.1036381646990776,0.06215285509824753,0.032644446939229965
0.028312526643276215,0.03744715824723244,0.08163522183895111
0.04541268199682236,0.09388667345046997,0.018708836287260056
0.0547788180410862,0.06359898298978806,0.06448090076446533
0.04162361100316048,0.028674064204096794,0.02559525892138481
0.015447930432856083,0.02054460532963276,0.03249387815594673
0.052101150155067444,0.06692980974912643,0.09972431510686874
0.07058538496494293,0.04308372735977173,0.08017756789922714
0.036655861884355545,0.06001640856266022,0.024586154147982597
0.014108601026237011,0.02964429184794426,0.01875593513250351
0.016588538885116577,0.04468370974063873,0.021425887942314148
0.015634609386324883,0.03910031169652939,0.05034932121634483
0.06370973587036133,0.0736948773264885,0.0656982809305191
0.05267877131700516,0.016726212576031685,0.021587129682302475
0.07733158767223358,0.10928776115179062,0.03937143087387085
0.008295184932649136,0.03314076364040375,0.07349654287099838
0.08029823005199432,0.03921676054596901,0.04622954875230789
0.08511097729206085,0.09737630188465118,0.07260257005691528
0.04214020445942879,0.04486187919974327,0.042289987206459045
0.05765867978334427,0.04882213473320007,0.06614673882722855
0.04019516706466675,0.03868517279624939,0.07397546619176865
0.053615618497133255,0.057193636894226074,0.0320349857211113
0.0699053481221199,0.03393738716840744,0.1073138639330864
0.05152349919080734,0.059103164821863174,0.06787088513374329
0.040469199419021606,0.06157168000936508,0.06365010887384415
0.049980491399765015,0.02120746299624443,0.029594918712973595
0.04698469489812851,0.035242147743701935,0.07186984270811081
0.049141041934490204,0.05929175391793251,0.0568716824054718
0.03785242140293121,0.056012313812971115,0.026869183406233788
0.010276978835463524,0.06251821666955948,0.06033890321850777
0.09733614325523376,0.07390096783638,0.03958959877490997
0.04594988748431206,0.05370603874325752,0.04461251199245453
0.03411782532930374,0.017680738121271133,0.09528405219316483
0.04320508614182472,0.0253477580845356,0.13476571440696716
0.05367454141378403,0.022476913407444954,0.03753649443387985
0.040755029767751694,0.052268072962760925,0.07513554394245148
0.027513545006513596,0.039839006960392,0.1578964740037918
0.019100401550531387,0.050133462995290756,0.05391978845000267
0.11241583526134491,0.0392879992723465,0.04577121511101723
0.040848344564437866,0.01583676226437092,0.01403872761875391
0.036200035363435745,0.0752587616443634,0.019541140645742416
0.03848712146282196,0.11501149833202362,0.061363834887742996
0.05769743397831917,0.06612265855073929,0.04028330743312836
0.036846693605184555,0.06144202500581741,0.03602288290858269
0.039462022483348846,0.0562567263841629,0.03566876798868179
0.182262122631073,0.04588267579674721,0.03669572249054909
0.07271077483892441,0.05996682122349739,0.12234091013669968
0.06018594652414322,0.07068383693695068,0.08458636701107025
0.08050891011953354,0.0878065973520279,0.06252159178256989
0.0605449452996254,0.04385935887694359,0.018925894051790237
0.03640994057059288,0.06081882491707802,0.058126237243413925
0.04364965111017227,0.06253377348184586,0.01260644942522049
0.02405562624335289,0.022699024528265,0.09241247922182083
0.016967084258794785,0.04293791577219963,0.03502409905195236
0.05199168249964714,0.052440617233514786,0.03731932491064072
0.03199043124914169,0.03640010952949524,0.0851110965013504
0.04762919992208481,0.04964374378323555,0.06017214059829712
0.0753776878118515,0.04823542758822441,0.08708290755748749
0.04593423381447792,0.03040991723537445,0.05010756477713585
0.06645986437797546,0.037910494953393936,0.044226452708244324
0.0666833221912384,0.014814719557762146,0.09022436290979385
0.035642486065626144,0.006464314181357622,0.045149169862270355
0.030232742428779602,0.03663310408592224,0.02522311359643936
0.07221463322639465,0.0729001834988594,0.05802358686923981
0.06592795252799988,0.0149999326094985,0.014703714288771152
0.05415162444114685,0.05590113252401352,0.049316052347421646
0.03378968685865402,0.09026677906513214,0.06644106656312943
0.026792438700795174,0.03224082291126251,0.0472930446267128
0.02306385338306427,0.02638569287955761,0.021295081824064255
0.050952162593603134,0.05281708389520645,0.030989736318588257
0.03160752356052399,0.058487776666879654,0.0393868088722229
0.042774099856615067,0.06608852744102478,0.016122855246067047
0.060147687792778015,0.08242739737033844,0.05571794509887695
0.06407351791858673,0.08925390988588333,0.03977213799953461
0.037228234112262726,0.07881918549537659,0.04079924896359444
0.034375838935375214,0.0530686117708683,0.07049305737018585
0.04980684816837311,0.09723223000764847,0.052044887095689774
0.07262744009494781,0.015866244211792946,0.045899856835603714
0.08636633306741714,0.016258377581834793,0.031426943838596344
0.02913476526737213,0.03420398756861687,0.08692309260368347
0.03402695432305336,0.1736922711133957,0.07247824966907501
0.025816410779953003,0.17291687428951263,0.18970583379268646
0.019771063700318336,0.01129460334777832,0.09618992358446121
0.03143627196550369,0.035022858530282974,0.022092878818511963
0.03139812499284744,0.04076090827584267,0.03108992800116539
0.08147385716438293,0.0214840117841959,0.05453666299581528
0.02969120442867279,0.025667311623692513,0.0646425187587738
0.030774038285017014,0.023202288895845413,0.05229352414608002
0.013425168581306934,0.024678071960806847,0.02856038138270378
0.022770574316382408,0.0199485644698143,0.024225642904639244
0.04252307116985321,0.0223376527428627,0.035614997148513794
0.07077120989561081,0.05511218309402466,0.09575743228197098
0.022661708295345306,0.07298785448074341,0.08531022816896439
0.04451242461800575,0.057010602205991745,0.03553708270192146
0.03189779818058014,0.022334637120366096,0.04759696125984192
0.0751572847366333,0.1001446321606636,0.05502014234662056
0.05655307695269585,0.03407164663076401,0.029667645692825317
0.0362263061106205,0.008584355935454369,0.028777044266462326
0.012538829818367958,0.010056675411760807,0.023760328069329262
0.0321340449154377,0.025156760588288307,0.006471612956374884
0.08673927932977676,0.0880090668797493,0.04262218251824379
0.0539868026971817,0.06249820068478584,0.04500887170433998
0.06720361113548279,0.03366933390498161,0.05913970619440079
0.021150754764676094,0.021934127435088158,0.03219236433506012
0.014585312455892563,0.06257618218660355,0.024119136855006218
0.03966475650668144,0.02387966215610504,0.05553008243441582
0.024168141186237335,0.017507346346974373,0.019308455288410187
0.09954202175140381,0.02184077352285385,0.034129586070775986
0.06510168313980103,0.029068835079669952,0.04765842482447624
0.046732883900403976,0.01476555410772562,0.03863367438316345
0.06264270842075348,0.07596708834171295,0.04184912517666817
0.03578720986843109,0.018447961658239365,0.02404010482132435
0.03912164643406868,0.03518342971801758,0.060316503047943115
0.018501678481698036,0.031062906607985497,0.15373611450195312
0.03163651376962662,0.009247465059161186,0.022832879796624184
0.036876510828733444,0.05653483793139458,0.025109756737947464
0.047238074243068695,0.039619848132133484,0.09039156883955002
0.06226394325494766,0.06811419874429703,0.07208258658647537
0.03065193071961403,0.05797714367508888,0.030352268368005753
0.04339778423309326,0.10531575977802277,0.030906198546290398
0.08133988827466965,0.020076004788279533,0.06441864371299744
0.037465374916791916,0.0392010472714901,0.06069569289684296
0.0358181893825531,0.04115140810608864,0.12244826555252075
0.06945046037435532,0.058591052889823914,0.02992531843483448
0.004697495140135288,0.015682784840464592,0.022847680374979973
0.04885096475481987,0.06420821696519852,0.0456651896238327
0.024022573605179787,0.05326258763670921,0.09592733532190323
0.011544191278517246,0.004095308016985655,0.009566288441419601
0.006850493606179953,0.018076259642839432,0.006325673311948776
0.15156932175159454,0.0450749434530735,0.04367365688085556
0.050099749118089676,0.10770338028669357,0.06388046592473984
0.08992539346218109,0.031187042593955994,0.055430032312870026
0.11393926292657852,0.060743026435375214,0.06287798285484314
0.08030382543802261,0.04987041652202606,0.05728885158896446
0.11822789907455444,0.07268950343132019,0.08218078315258026
0.09034477919340134,0.026295803487300873,0.06642331928014755
0.05180812254548073,0.04284018278121948,0.08932484686374664
0.022656423971056938,0.028636233881115913,0.02157934568822384
0.04463668540120125,0.026143185794353485,0.02068868838250637
0.07966772466897964,0.11125442385673523,0.06532394886016846
0.07775522768497467,0.05893953889608383,0.04354085028171539
0.08500396460294724,0.15566585958003998,0.18229006230831146
0.06738871335983276,0.07142248004674911,0.0942644402384758
0.06327154487371445,0.05173865333199501,0.022931711748242378
0.0982649028301239,0.08491092920303345,0.12095794081687927
0.09888975322246552,0.08362260460853577,0.08639983087778091
0.04376485198736191,0.10157878696918488,0.04557471349835396
0.03227207437157631,0.02007610909640789,0.09468841552734375
0.03220237046480179,0.06650573760271072,0.04995730519294739
0.11451455950737,0.16629387438297272,0.0073786890134215355
0.0836392492055893,0.16169874370098114,0.06290081143379211
0.041484247893095016,0.040199629962444305,0.048509225249290466
0.013183319009840488,0.02585238590836525,0.02323625609278679
0.029140422120690346,0.05431035906076431,0.029092339798808098
0.07166792452335358,0.04473254457116127,0.059329744428396225
0.10095050185918808,0.051751650869846344,0.13506381213665009
0.051251236349344254,0.05357607454061508,0.08801980316638947
0.044223736971616745,0.036786142736673355,0.06182819977402687
0.027894748374819756,0.007128430530428886,0.15168997645378113
0.03537450358271599,0.024520792067050934,0.06645485013723373
0.05533701926469803,0.05533347651362419,0.1322833150625229
0.0621689073741436,0.0748274102807045,0.05327695608139038
0.0673242136836052,0.07181019335985184,0.08037286251783371
0.01879480667412281,0.0485491007566452,0.028870578855276108
0.0246872678399086,0.055422525852918625,0.0348222479224205
0.051461417227983475,0.03773253411054611,0.041447095572948456
0.05372345820069313,0.04049200564622879,0.02875833585858345
0.07076515257358551,0.1008080244064331,0.041232138872146606
0.07529258728027344,0.056637171655893326,0.046653371304273605
0.012189057655632496,0.020737841725349426,0.040189728140830994
0.04610135406255722,0.03720652684569359,0.02760426327586174
0.06462930142879486,0.027438966557383537,0.027416763827204704
0.017004547640681267,0.00742398900911212,0.05142137408256531
0.018344879150390625,0.01764853298664093,0.03467940911650658
0.05038340762257576,0.0167824886739254,0.09581698477268219
0.011775510385632515,0.0116592301055789,0.031967513263225555
0.027999397367239,0.02462017349898815,0.02260052040219307
0.010837259702384472,0.058107174932956696,0.020093249157071114
0.041230980306863785,0.06185048073530197,0.07302463054656982
0.07175732403993607,0.06417912989854813,0.03560498356819153
0.17350639402866364,0.14366525411605835,0.04125572741031647
0.06490808725357056,0.041668497025966644,0.05537642538547516
0.05797003582119942,0.04266102984547615,0.06228045001626015
0.09697695076465607,0.06940602511167526,0.08474687486886978
0.10232939571142197,0.08545871078968048,0.056449584662914276
0.08908353000879288,0.08933991938829422,0.025514336302876472
0.06190631911158562,0.05274210125207901,0.07874873280525208
0.04990685358643532,0.0236527007073164,0.02939685247838497
0.05903239920735359,0.04856569692492485,0.04885989427566528
0.06149696931242943,0.06391502916812897,0.059549879282712936
0.057759854942560196,0.05446086451411247,0.10081812739372253
0.03656817600131035,0.04373938962817192,0.05612253397703171
0.03147876635193825,0.04410478472709656,0.024981452152132988
0.04128894582390785,0.0331512987613678,0.02444409392774105
0.06237121671438217,0.05760263651609421,0.06693591922521591
0.07430709898471832,0.05539201945066452,0.06209629029035568
0.019706783816218376,0.05471339821815491,0.02311752922832966
0.04214128851890564,0.037175871431827545,0.12065964192152023
0.13401280343532562,0.05469499155879021,0.030934005975723267
0.03290925174951553,0.05329634249210358,0.03548990562558174
0.05472099035978317,0.0841737687587738,0.0970667377114296
0.02350662276148796,0.09258437156677246,0.014529821462929249
0.0117583516985178,0.03711702302098274,0.01641877181828022
0.03441478684544563,0.09645544737577438,0.1500723659992218
0.017261194065213203,0.024759039282798767,0.015063880942761898
0.04391855373978615,0.19060206413269043,0.018463734537363052
0.04402488097548485,0.03089207597076893,0.01512838527560234
0.04294583573937416,0.07090341299772263,0.046484705060720444
0.021259110420942307,0.05772336944937706,0.02267131581902504
0.009616391733288765,0.026398304849863052,0.057530149817466736
0.07431517541408539,0.11243335157632828,0.09055627137422562
0.04151199385523796,0.08010944724082947,0.13143768906593323
0.05186588317155838,0.08316613733768463,0.08257556706666946
0.052407339215278625,0.12525872886180878,0.07047347724437714
0.02825019508600235,0.01611105352640152,0.04902312532067299
0.021523382514715195,0.04499867931008339,0.03794588893651962
0.10215505957603455,0.05126790329813957,0.0736025869846344
0.1406707614660263,0.05899113416671753,0.1144464761018753
0.0974670946598053,0.0606040358543396,0.0820971429347992
0.02698880061507225,0.043308380991220474,0.06331969797611237
0.03998521342873573,0.03988327458500862,0.055482521653175354
0.27250075340270996,0.053338490426540375,0.023119743913412094
0.04068829491734505,0.12362585216760635,0.1725751906633377
0.051557738333940506,0.0996190756559372,0.056807488203048706
0.06792789697647095,0.09049899131059647,0.0754864439368248
0.03571008890867233,0.14892354607582092,0.13713613152503967
0.030613647773861885,0.12002886831760406,0.09523802995681763
0.10175799578428268,0.045310162007808685,0.10490947216749191
0.03915660083293915,0.013594791293144226,0.06254779547452927
0.09001759439706802,0.08461206406354904,0.026722976937890053
0.026579853147268295,0.030294986441731453,0.07757940143346786
0.05113319307565689,0.011349956505000591,0.012308395467698574
0.03556528687477112,0.01584743522107601,0.04637017101049423
0.0177263505756855,0.03325042501091957,0.04125248268246651
0.02559596672654152,0.01568879373371601,0.029899336397647858
0.046541862189769745,0.011592038907110691,0.05387771502137184
0.03681245073676109,0.03175809234380722,0.043791770935058594
0.0318695604801178,0.0135218920186162,0.05170411244034767
0.06632009148597717,0.09924282133579254,0.05134725943207741
0.07609451562166214,0.05794709175825119,0.07978903502225876
0.02978072315454483,0.047133397310972214,0.07947728037834167
0.14949531853199005,0.03886532410979271,0.03642994910478592
0.026900477707386017,0.14256522059440613,0.12299992144107819
0.06311249732971191,0.050816893577575684,0.07482975721359253
0.0275327879935503,0.023578988388180733,0.07850738614797592
0.05091254785656929,0.051529087126255035,0.12033315747976303
0.04759470000863075,0.04935596138238907,0.06034567207098007
0.018547194078564644,0.01160246692597866,0.06236952543258667
0.049156226217746735,0.0712466761469841,0.02509542554616928
0.026641536504030228,0.011491252109408379,0.03835649788379669
0.04898107796907425,0.05954292044043541,0.10135097801685333
0.04645471274852753,0.01584840938448906,0.0563160739839077
0.06697602570056915,0.04141918197274208,0.053298577666282654
0.05419108644127846,0.0699145644903183,0.07895797491073608
0.11928365379571915,0.10681693255901337,0.0540894940495491
0.03692620247602463,0.034476567059755325,0.04214312136173248
0.0881328135728836,0.04755466431379318,0.06980782747268677
0.04919874295592308,0.039897024631500244,0.0720905289053917
0.1084662601351738,0.02181510627269745,0.046064697206020355
0.011869830079376698,0.027255786582827568,0.030533792451024055
0.05482648313045502,0.035892996937036514,0.05760553106665611
0.037452373653650284,0.06341144442558289,0.04464803263545036
0.1723555475473404,0.09290483593940735,0.05825961381196976
0.057952631264925,0.11475571990013123,0.03063392825424671
0.17071817815303802,0.05261887237429619,0.03609555959701538
0.0276683047413826,0.07915019989013672,0.07195530831813812
0.03496344015002251,0.14702415466308594,0.0727202445268631
0.0738869309425354,0.057763367891311646,0.07729653269052505
0.044388823211193085,0.05517043545842171,0.1060473620891571
0.05155924707651138,0.031599011272192,0.0507032573223114
0.06102604418992996,0.027079911902546883,0.014825242571532726
0.09890057146549225,0.022680234163999557,0.0743737444281578
0.062043070793151855,0.11585184931755066,0.08959146589040756
0.0322699137032032,0.07475149631500244,0.04615084081888199
0.06796683371067047,0.06057292968034744,0.04241090267896652
0.04340188950300217,0.04771618917584419,0.07151976227760315
0.058928314596414566,0.054999224841594696,0.03969414159655571
0.0328645259141922,0.02059647999703884,0.024061208590865135
0.07897613942623138,0.03458758443593979,0.09599047154188156
0.06743475049734116,0.03910103067755699,0.04334250092506409
0.05818525329232216,0.06445805728435516,0.08178840577602386
0.0721874088048935,0.04777846857905388,0.0810837596654892
0.11797715723514557,0.06369460374116898,0.0621502660214901
0.011641260236501694,0.060287971049547195,0.041251182556152344
0.01624605432152748,0.025696689262986183,0.023531584069132805
0.03224102035164833,0.05433705076575279,0.013028208166360855
0.04111585393548012,0.020556097850203514,0.012793186120688915
0.011307073757052422,0.062151458114385605,0.039337050169706345
0.06601276248693466,0.048866886645555496,0.056280240416526794
0.06418702006340027,0.04893437772989273,0.08055230230093002
0.09792672842741013,0.009248515591025352,0.08764016628265381
0.016435276716947556,0.11694470047950745,0.06676539778709412
0.014698940329253674,0.03075629658997059,0.024269046261906624
0.025956161320209503,0.06182042509317398,0.0312960222363472
0.051641933619976044,0.03870018571615219,0.018894679844379425
0.06918999552726746,0.03644616901874542,0.052597709000110626
0.0447918102145195,0.06547261029481888,0.05387347191572189
0.05456901341676712,0.013379252515733242,0.06111470237374306
0.01770917885005474,0.03971889242529869,0.05570974200963974
0.18110758066177368,0.030050678178668022,0.027728933840990067
0.07044389098882675,0.055338554084300995,0.06443487107753754
0.04194454848766327,0.028170695528388023,0.04461878910660744
0.030233828350901604,0.006813972257077694,0.04121001809835434
0.05185454338788986,0.04010412096977234,0.06707468628883362
0.0695205107331276,0.03344668447971344,0.05159426108002663
0.029784806072711945,0.07429421693086624,0.017673218622803688
0.04436910152435303,0.04712874814867973,0.06654742360115051
0.19537824392318726,0.07707303762435913,0.1430480033159256
0.08776870369911194,0.06333134323358536,0.04890457168221474
0.030234530568122864,0.038650162518024445,0.024036340415477753
0.08986518532037735,0.04552522301673889,0.05158274620771408
0.03794839605689049,0.05037542060017586,0.055129360407590866
0.05538951978087425,0.05905306711792946,0.13139045238494873
0.09333638846874237,0.04890373721718788,0.05890440195798874
0.03636983036994934,0.06313502043485641,0.0616336315870285
0.049059055745601654,0.010623891837894917,0.06048966944217682
0.07607849687337875,0.08532615751028061,0.1696431189775467
0.1008501872420311,0.07790917903184891,0.06921060383319855
0.06267224997282028,0.05588582903146744,0.03132426738739014
0.07193920761346817,0.05302435904741287,0.05006980150938034
0.046386245638132095,0.11710067838430405,0.056710924953222275
0.12412402778863907,0.0518350712954998,0.050794199109077454
0.02969847060739994,0.0468502976000309,0.10573875159025192
0.09493595361709595,0.05898347124457359,0.03312453255057335
0.039672546088695526,0.0344177670776844,0.02589956298470497
0.03918876126408577,0.047189388424158096,0.028541140258312225
0.06507885456085205,0.073098324239254,0.08749931305646896
0.06387074291706085,0.06819136440753937,0.07326748222112656
0.05374285578727722,0.040671490132808685,0.03239547833800316
0.03897887095808983,0.02476487308740616,0.029295077547430992
0.07138630002737045,0.06360259652137756,0.09026053547859192
0.07196793705224991,0.08619529753923416,0.07808748632669449
0.07013659179210663,0.08312677592039108,0.054187629371881485
0.06837570667266846,0.08417795598506927,0.1128530204296112
0.16774389147758484,0.08314494788646698,0.09271874278783798
0.10201998054981232,0.08794716745615005,0.09156043082475662
0.033280614763498306,0.00984493549913168,0.0440404936671257
0.041047461330890656,0.057992469519376755,0.013620568439364433
0.03184271231293678,0.033623095601797104,0.044441189616918564
0.07496368139982224,0.03020826354622841,0.10797298699617386
0.02564510889351368,0.056880783289670944,0.04466688260436058
0.014577321708202362,0.04164985939860344,0.03271287679672241
0.018267367035150528,0.04650390148162842,0.04490235820412636
0.009960643015801907,0.010940334759652615,0.039439305663108826
0.032422199845314026,0.028164345771074295,0.01982770301401615
0.017675308510661125,0.04831984266638756,0.09760981798171997
0.08093690127134323,0.08908234536647797,0.07643073797225952
0.07661095261573792,0.040902603417634964,0.05495717376470566
0.01688907854259014,0.02626439370214939,0.03410335257649422
0.011943485587835312,0.016567811369895935,0.08628111332654953
0.007869496010243893,0.017361510545015335,0.02037929743528366
0.02534526027739048,0.039773475378751755,0.020206553861498833
0.06951327621936798,0.03803960233926773,0.10304702073335648
0.05222290754318237,0.07821279764175415,0.12277288734912872
0.09542254358530045,0.05809956416487694,0.0842018723487854
0.03891247510910034,0.09097559005022049,0.035937391221523285
0.08775369822978973,0.11047001928091049,0.058104079216718674
0.08910582959651947,0.05670382082462311,0.04284030571579933
0.03608204051852226,0.0428561270236969,0.07708360999822617
0.02960098348557949,0.05360336974263191,0.030635960400104523
0.055298395454883575,0.06401156634092331,0.07463368773460388
0.03250345587730408,0.019030224531888962,0.030647682026028633
0.03415320813655853,0.03092934936285019,0.02605009824037552
0.079537533223629,0.06861145794391632,0.06585025787353516
0.03625890240073204,0.0382566973567009,0.04417596384882927
0.047110434621572495,0.087273009121418,0.21108566224575043
0.059142954647541046,0.06470003724098206,0.05832723155617714
0.11616422235965729,0.08835107088088989,0.039474572986364365
0.039763811975717545,0.045731931924819946,0.07146702706813812
0.1200418770313263,0.09835254400968552,0.09336833655834198
0.04699314385652542,0.09371570497751236,0.08440787345170975
0.06436862796545029,0.013735598884522915,0.037711385637521744
0.03027186170220375,0.044658854603767395,0.04033702239394188
0.049343809485435486,0.06276389956474304,0.08977734297513962
0.04796556755900383,0.03368833661079407,0.13016566634178162
0.07351111620664597,0.03860680013895035,0.051909856498241425
0.04807537421584129,0.0515294186770916,0.036188118159770966
0.033474378287792206,0.07992203533649445,0.07148346304893494
0.06796101480722427,0.03435841575264931,0.032729655504226685
0.05691403150558472,0.052377503365278244,0.052580300718545914
0.043552499264478683,0.048107605427503586,0.04431085288524628
0.07110917568206787,0.053549133241176605,0.0506417341530323
0.08764669299125671,0.0865512415766716,0.06050277128815651
0.20275598764419556,0.06075923889875412,0.04169703647494316
0.09751296043395996,0.020350951701402664,0.15134894847869873
0.04870293661952019,0.016533510759472847,0.05571907013654709
0.03558177873492241,0.06734994053840637,0.04255593940615654
0.07689327746629715,0.06526798009872437,0.08110766112804413
0.029634080827236176,0.022932909429073334,0.05008505657315254
0.013935641385614872,0.028322270140051842,0.01564541645348072
0.02993863634765148,0.02363358438014984,0.022205116227269173
0.024509239941835403,0.02415759488940239,0.05061156302690506
0.043664585798978806,0.05686613544821739,0.07051653414964676
0.04250744730234146,0.011372479610145092,0.019247274845838547
0.021086741238832474,0.010047483257949352,0.017989274114370346
0.01928355172276497,0.032808151096105576,0.017824307084083557
0.025052808225154877,0.022604070603847504,0.012324623763561249
0.0301673486828804,0.035911791026592255,0.04855368286371231
0.04056182876229286,0.04068897292017937,0.068442203104496
0.03317273408174515,0.06928259879350662,0.10374963283538818
0.014011049643158913,0.06244824454188347,0.08862988650798798
0.013982278294861317,0.09302935749292374,0.01786338910460472
0.02793562225997448,0.021930083632469177,0.03561484068632126
0.03193426877260208,0.02161598950624466,0.02072720415890217
0.018404170870780945,0.02846754901111126,0.014779843389987946
0.06997044384479523,0.005924919154495001,0.048280294984579086
0.0169609934091568,0.07586956769227982,0.1764337122440338
0.027353020384907722,0.035902999341487885,0.061207983642816544
0.054894499480724335,0.10257545113563538,0.07394799590110779
0.017954016104340553,0.027203217148780823,0.031581807881593704
0.055632319301366806,0.05137093365192413,0.03471524640917778
0.03430461511015892,0.021500276401638985,0.015259123407304287
0.01820281520485878,0.04137500748038292,0.01739197038114071
0.04755339026451111,0.05139092728495598,0.04880794510245323
0.04783421754837036,0.04276369884610176,0.03224703669548035
0.04525845870375633,0.04196128994226456,0.04216237738728523
0.04268186539411545,0.054379452019929886,0.035818733274936676
0.021442269906401634,0.053499735891819,0.04445205628871918
0.024890808388590813,0.026599830016493797,0.033955901861190796
0.030332621186971664,0.07194898277521133,0.03419586643576622
0.031138386577367783,0.03385380282998085,0.04503285512328148
0.16597622632980347,0.05220074951648712,0.14161722362041473
0.0493224561214447,0.016230175271630287,0.01461546216160059
0.025493191555142403,0.06225359067320824,0.016763266175985336
0.018248330801725388,0.032198015600442886,0.06281297653913498
0.07424517720937729,0.10416705906391144,0.03470166400074959
0.06745809316635132,0.08739354461431503,0.03557473048567772
0.11173214763402939,0.018789542838931084,0.11458791792392731
0.025234723463654518,0.030894387513399124,0.048146117478609085
0.042409464716911316,0.03411469608545303,0.04198146238923073
0.018433496356010437,0.04330262914299965,0.04844509810209274
0.08078265190124512,0.07827525585889816,0.08499777317047119
0.02213461324572563,0.02412312850356102,0.030719727277755737
0.054077208042144775,0.05031195655465126,0.03929756209254265
0.11187277734279633,0.044053297489881516,0.0473845899105072
0.02855386584997177,0.020048417150974274,0.011971520259976387
0.037436652928590775,0.1264711618423462,0.048557668924331665
0.04188922420144081,0.060426559299230576,0.18100027740001678
0.01856340281665325,0.030281933024525642,0.08834725618362427
0.055458322167396545,0.06801759451627731,0.02022639289498329
0.03964900225400925,0.06922440975904465,0.042568694800138474
0.09212765097618103,0.01983533427119255,0.054491668939590454
0.036513399332761765,0.021305644884705544,0.19204790890216827
0.022617030888795853,0.06907110661268234,0.0243644118309021
0.03158558905124664,0.03676648810505867,0.08199302107095718
0.030772149562835693,0.0738007053732872,0.07189227640628815
0.040453240275382996,0.06255028396844864,0.10943357646465302
0.03159981220960617,0.06923063844442368,0.05066554248332977
0.04599136486649513,0.04537930712103844,0.04331732168793678
0.05523714795708656,0.07170544564723969,0.07544389367103577
0.038044556975364685,0.04693290963768959,0.024672413244843483
0.0737917423248291,0.13910116255283356,0.057766541838645935
0.023824090138077736,0.0791972354054451,0.015002894215285778
0.021613704040646553,0.030470166355371475,0.030058518052101135
0.019009942188858986,0.04241636395454407,0.05251583084464073
0.05991676449775696,0.08512227237224579,0.06615470349788666
0.08512023836374283,0.038111697882413864,0.06243639811873436
0.038595639169216156,0.038757748901844025,0.020094459876418114
0.04578925669193268,0.0381232351064682,0.04261453077197075
0.06018316000699997,0.024012768641114235,0.09299835562705994
0.04811887443065643,0.027854572981595993,0.03581705316901207
0.028304627165198326,0.059081148356199265,0.037433356046676636
0.05620187893509865,0.015254180878400803,0.023933960124850273
0.07191067934036255,0.07737037539482117,0.025969143956899643
0.03584601357579231,0.036015890538692474,0.07174445688724518
0.036062903702259064,0.025925857946276665,0.06217299774289131
0.03864054009318352,0.11353884637355804,0.04797668009996414
0.043810345232486725,0.09752659499645233,0.0633259043097496
0.008740676566958427,0.01893184520304203,0.03792678192257881
0.03372861444950104,0.04556731879711151,0.029373664408922195
0.08234303444623947,0.11331002414226532,0.023936476558446884
0.03632627800107002,0.04174419492483139,0.03665206953883171
0.04936235398054123,0.0739266648888588,0.029235320165753365
0.023765016347169876,0.0294856708496809,0.031203607097268105
0.041665468364953995,0.07859092205762863,0.06102462857961655
0.034714002162218094,0.050262946635484695,0.021235324442386627
0.09110189974308014,0.19077330827713013,0.07562074065208435
0.022575702518224716,0.08296845853328705,0.031149612739682198
0.0825539082288742,0.06904098391532898,0.04162672534584999
0.07267822325229645,0.09974951297044754,0.0278487391769886
0.03617740049958229,0.013093963265419006,0.06508354097604752
0.055128563195466995,0.05725501850247383,0.04721710830926895
0.28678134083747864,0.036886949092149734,0.030339675024151802
0.10961036384105682,0.08628353476524353,0.03802947700023651
0.17033842206001282,0.024648748338222504,0.07912232726812363
0.0615815706551075,0.04846784844994545,0.0665312185883522
0.09044239670038223,0.056787386536598206,0.039710633456707
0.03677212819457054,0.031242486089468002,0.0849076509475708
0.028598368167877197,0.03556058183312416,0.022154737263917923
0.06661166250705719,0.07489228248596191,0.048400040715932846
0.07042203098535538,0.05394186079502106,0.0381702296435833
0.04236774146556854,0.024951931089162827,0.01067334320396185
0.03416898846626282,0.029614269733428955,0.04065457731485367
0.0636514276266098,0.07075592875480652,0.05913064628839493
0.06917732208967209,0.06822530180215836,0.05533630773425102
0.023320408537983894,0.0543641522526741,0.025372324511408806
0.008872203528881073,0.04845387861132622,0.021591246128082275
0.036200977861881256,0.036629367619752884,0.03148908540606499
0.03754041716456413,0.032535817474126816,0.12770353257656097
0.054882608354091644,0.08380188792943954,0.05919270217418671
0.02867542952299118,0.038630176335573196,0.013759839348495007
0.018006525933742523,0.03677237778902054,0.03291640803217888
0.053225837647914886,0.020123323425650597,0.045956939458847046
0.08008384704589844,0.07197339087724686,0.07318086177110672
0.10089157521724701,0.10013776272535324,0.10424517840147018
0.08451949805021286,0.05427603796124458,0.09862980246543884
0.019975997507572174,0.060777999460697174,0.04527009278535843
0.12425318360328674,0.09793822467327118,0.05739539489150047
0.06737621873617172,0.17083235085010529,0.04897993057966232
0.03778951242566109,0.020092317834496498,0.03194585070014
0.013949809595942497,0.008495796471834183,0.020327076315879822
0.020853156223893166,0.024425556883215904,0.05440937355160713
0.05422447994351387,0.04562916234135628,0.09455361217260361
0.18603090941905975,0.08968445658683777,0.023856818675994873
0.08265044540166855,0.15028125047683716,0.11352841556072235
0.027410292997956276,0.07731648534536362,0.018121829256415367
0.09285832941532135,0.09343250840902328,0.11805589497089386
0.03485434129834175,0.05019166320562363,0.06471337378025055
0.015251425094902515,0.0413455106317997,0.04342160001397133
0.13070501387119293,0.02041303552687168,0.08530152589082718
0.02049180120229721,0.02695664018392563,0.036131493747234344
0.030042266473174095,0.032783545553684235,0.037426501512527466
0.03626081719994545,0.047803740948438644,0.04155489057302475
0.03587935492396355,0.010913851670920849,0.02119400165975094
0.03191868215799332,0.042855534702539444,0.040330640971660614
0.06191817671060562,0.014374392107129097,0.012265306897461414
0.09117534011602402,0.08072097599506378,0.07613298296928406
0.057788822799921036,0.04911470785737038,0.047697171568870544
0.03910476714372635,0.027186455205082893,0.03860671445727348
0.01670532114803791,0.022576576098799706,0.04609007388353348
0.1053512692451477,0.07674136012792587,0.0616036131978035
0.11671806126832962,0.11191000044345856,0.08536563813686371
0.02160729095339775,0.06334604322910309,0.04227522760629654
0.03564808517694473,0.028509588912129402,0.08355484157800674
0.0749909058213234,0.0802631676197052,0.0846082791686058
0.04576925188302994,0.0696309506893158,0.03142409399151802
0.04578850045800209,0.029158590361475945,0.11314119398593903
0.030600909143686295,0.020877204835414886,0.049712348729372025
0.053921449929475784,0.054790060967206955,0.06324974447488785
0.07426664233207703,0.018177559599280357,0.09429678320884705
0.04933147504925728,0.1641196459531784,0.051463961601257324
0.08406011015176773,0.016274286434054375,0.0932314544916153
0.06524248421192169,0.06336834281682968,0.027019547298550606
0.056158583611249924,0.04277186468243599,0.03376954793930054
0.04172338917851448,0.056036461144685745,0.06189004331827164
0.038042981177568436,0.034390076994895935,0.027581144124269485
0.06423051655292511,0.05941983684897423,0.058980122208595276
0.0207632165402174,0.04216364771127701,0.026927651837468147
0.1379803568124771,0.024312106892466545,0.041610583662986755
0.020811401307582855,0.06307727843523026,0.05182744562625885
0.02413570135831833,0.023862265050411224,0.010761725716292858
0.014973369427025318,0.017609287053346634,0.046586696058511734
0.007658334914594889,0.0142323337495327,0.04473861679434776
0.034952208399772644,0.023164736106991768,0.007387277204543352
0.10176310688257217,0.11786453425884247,0.023870958015322685
0.026750953868031502,0.024035997688770294,0.030202815309166908
0.036475688219070435,0.0868457481265068,0.034796420484781265
0.05703675374388695,0.03303221985697746,0.10705460608005524
0.034739065915346146,0.021189048886299133,0.045598894357681274
0.20845025777816772,0.01186412014067173,0.01015290804207325
0.08692806959152222,0.05949971824884415,0.030409162864089012
0.053902316838502884,0.04913663491606712,0.08907965570688248
0.048675864934921265,0.06906578689813614,0.06303015351295471
0.059529755264520645,0.07823392003774643,0.10130218416452408
0.07585036754608154,0.08764936774969101,0.02416212484240532
0.08138171583414078,0.11671820282936096,0.07781513035297394
0.030382798984646797,0.04383409395813942,0.10246283560991287
0.05759338289499283,0.022580521181225777,0.03531314432621002
0.05467461794614792,0.06186100095510483,0.06782998144626617
0.0959390178322792,0.11090100556612015,0.13398882746696472
0.07409627735614777,0.05298953875899315,0.03515061363577843
0.06366339325904846,0.0313633531332016,0.0336933434009552
0.07350235432386398,0.0450933575630188,0.04698442295193672
0.04970696568489075,0.04028606787323952,0.040750231593847275
0.02574300765991211,0.028758179396390915,0.0569491870701313
0.06835690140724182,0.03983893617987633,0.030251773074269295
0.04061078652739525,0.05106288194656372,0.06422744691371918
0.03586059436202049,0.0420043021440506,0.024907907471060753
0.11639400571584702,0.05304405465722084,0.01384508702903986
0.05584041774272919,0.04464961588382721,0.08280231058597565
0.10170202702283859,0.06718473136425018,0.04334775358438492
0.05600383132696152,0.034147709608078,0.04213603958487511
0.049971893429756165,0.056745994836091995,0.04314134642481804
0.05239473655819893,0.06830126792192459,0.0759706199169159
0.03607533127069473,0.06809476763010025,0.05394564941525459
0.0672864094376564,0.07450232654809952,0.058404065668582916
0.009502492845058441,0.04489016905426979,0.03711283951997757
0.012243770994246006,0.018137382343411446,0.013119490817189217
0.05651131644845009,0.08789075911045074,0.028221484273672104
0.04039204865694046,0.037805136293172836,0.03135932236909866
0.05853455513715744,0.015654994174838066,0.07738699018955231
0.04288262873888016,0.3066013753414154,0.013319989666342735
0.04284954443573952,0.017703671008348465,0.06384511291980743
0.02721562050282955,0.016380473971366882,0.06229740381240845
0.0689391940832138,0.054976798593997955,0.06675588339567184
0.06033618375658989,0.064803346991539,0.059762220829725266
0.021026019006967545,0.075722336769104,0.0410546213388443
0.03138960525393486,0.03532414138317108,0.02963365986943245
0.04926120862364769,0.028810935094952583,0.05071127414703369
0.037509769201278687,0.039247654378414154,0.036954790353775024
0.009963439777493477,0.05445072427392006,0.013929865323007107
0.018611950799822807,0.04789543151855469,0.02644471824169159
0.10601773858070374,0.13705968856811523,0.05201200768351555
0.051303207874298096,0.08894849568605423,0.03406010940670967
0.018332703039050102,0.023276755586266518,0.0848211944103241
0.026137400418519974,0.03860842064023018,0.056201837956905365
0.04553615301847458,0.00745584350079298,0.047378625720739365
0.049358971416950226,0.05251607671380043,0.043814338743686676
0.014358646236360073,0.036999039351940155,0.03882570192217827
0.11196175962686539,0.05867145583033562,0.08568721264600754
0.07706864923238754,0.08731193840503693,0.09862402826547623
0.07236813008785248,0.11703402549028397,0.09536442905664444
0.06709235161542892,0.10337004065513611,0.0539679229259491
0.02165764383971691,0.017178328707814217,0.04716993495821953
0.11563334614038467,0.06125667318701744,0.04718026518821716
0.059848226606845856,0.056591734290122986,0.045487161725759506
0.05158544331789017,0.03659014031291008,0.05634614825248718
0.0248419139534235,0.02571723237633705,0.15300258994102478
0.042020250111818314,0.11347973346710205,0.049800511449575424
0.03851810470223427,0.024137968197464943,0.053228333592414856
0.032551560550928116,0.11836101859807968,0.08805876225233078
0.037577949464321136,0.059645719826221466,0.0651385560631752
0.042290907353162766,0.04888839274644852,0.04870511218905449
0.05457044392824173,0.053278036415576935,0.04801924526691437
0.15589965879917145,0.02797236107289791,0.056291162967681885
0.03949963301420212,0.04583093896508217,0.0244966559112072
0.09658767282962799,0.06304971128702164,0.08371473848819733
0.030354803428053856,0.10856010764837265,0.03956133499741554
0.10945534706115723,0.10587713867425919,0.03987117484211922
0.03655950725078583,0.048982128500938416,0.03733242303133011
0.056344375014305115,0.04628889635205269,0.04557918384671211
0.07401181757450104,0.05317212641239166,0.0660632848739624
0.049124978482723236,0.15787509083747864,0.048334814608097076
0.03217345103621483,0.04529125243425369,0.0320122130215168
0.03181545436382294,0.0699005052447319,0.022847283631563187
0.22065210342407227,0.08643403649330139,0.11345377564430237
0.023895524442195892,0.04047287255525589,0.02877018414437771
0.04004659131169319,0.08912269026041031,0.02824282832443714
0.03707783669233322,0.013327772729098797,0.03486441820859909
0.036911021918058395,0.01839296519756317,0.028522180393338203
0.03170529752969742,0.03112763725221157,0.06810179352760315
0.04039672389626503,0.06861456483602524,0.04732437804341316
0.04387423396110535,0.04885844141244888,0.07260069996118546
0.1135900691151619,0.04114428907632828,0.04233700409531593
0.05279845371842384,0.036559611558914185,0.08308100700378418
0.03741276636719704,0.04648314788937569,0.07346606254577637
0.09680375456809998,0.06816785782575607,0.037604428827762604
0.0706702247262001,0.08064952492713928,0.05424854904413223
0.021451251581311226,0.032376885414123535,0.05647040531039238
0.03880462795495987,0.04982633516192436,0.04989763721823692
0.04160713776946068,0.03687255084514618,0.04165396839380264
0.033285606652498245,0.028896106407046318,0.12862515449523926
0.08212083578109741,0.02831592597067356,0.031133415177464485
0.03050977922976017,0.08640166372060776,0.06943140923976898
0.10201230645179749,0.07972376048564911,0.08797679096460342
0.015654323622584343,0.03400975093245506,0.030939415097236633
0.013892324641346931,0.05253090709447861,0.02693096362054348
0.15100184082984924,0.08224861323833466,0.09832490980625153
0.023726562038064003,0.022733094170689583,0.04125823453068733
0.019628090783953667,0.05281798169016838,0.04470033571124077
0.06142190471291542,0.06320416182279587,0.03177305683493614
0.059034768491983414,0.07994319498538971,0.03910023346543312
0.02665098011493683,0.03444196656346321,0.03234926238656044
0.018167559057474136,0.017258411273360252,0.058995507657527924
0.009675253182649612,0.04562300816178322,0.01625465601682663
0.0428558811545372,0.009844537824392319,0.01617300696671009
0.07403445988893509,0.06183147802948952,0.04860759899020195
0.05587422475218773,0.06303514540195465,0.06412746012210846
0.031700342893600464,0.01995936408638954,0.028480445966124535
0.01825547032058239,0.019533591344952583,0.028434868901968002
0.07162478566169739,0.023286575451493263,0.04044221714138985
0.044364288449287415,0.02326098456978798,0.022971317172050476
0.008415714837610722,0.014763054437935352,0.03629789501428604
0.044252995401620865,0.03942631930112839,0.045987941324710846
0.02555186115205288,0.04727814346551895,0.0571359321475029
0.023640405386686325,0.06373125314712524,0.06958833336830139
0.03249204531311989,0.040351320058107376,0.03356889262795448
0.0472257025539875,0.0445108599960804,0.07358552515506744
0.07924722135066986,0.06990133225917816,0.0559919998049736
0.059590861201286316,0.05556413158774376,0.039427269250154495
0.047798287123441696,0.05157289281487465,0.05430418252944946
0.04738835245370865,0.1102476567029953,0.008287596516311169
0.010151884518563747,0.014690674841403961,0.01721927896142006
0.013382382690906525,0.02693658135831356,0.09756379574537277
0.034456685185432434,0.08053824305534363,0.06714505702257156
0.05078991502523422,0.016134891659021378,0.014302306808531284
0.030188363045454025,0.059030164033174515,0.04433267191052437
0.09438338130712509,0.055577587336301804,0.03513011708855629
0.08111649006605148,0.03709881752729416,0.06391488015651703
0.045556969940662384,0.01672128401696682,0.05273834988474846
0.12605781853199005,0.058561697602272034,0.08331826329231262
0.11445703357458115,0.06127363443374634,0.04898284003138542
0.07242221385240555,0.046671103686094284,0.11692564934492111
0.019881587475538254,0.026946254074573517,0.025422656908631325
0.07992400974035263,0.07750292867422104,0.09864895790815353
0.01733488216996193,0.0316181406378746,0.047114383429288864
0.048502057790756226,0.049582261592149734,0.04126802459359169
0.03806709125638008,0.17439472675323486,0.017760993912816048
0.03446580469608307,0.01182507537305355,0.10098173469305038
0.018324950709939003,0.011116241104900837,0.05040278285741806
0.03859664872288704,0.028455674648284912,0.03599177673459053
0.03767330199480057,0.06671606749296188,0.06332822144031525
0.011312076821923256,0.044202957302331924,0.029721984639763832
0.05929773300886154,0.030277470126748085,0.058677200227975845
0.046615418046712875,0.08446506410837173,0.04908683896064758
0.012172040529549122,0.06756215542554855,0.04494418948888779
0.06246399134397507,0.0426262728869915,0.039189498871564865
0.04182478040456772,0.04137851670384407,0.04019070789217949
0.02383902482688427,0.019162464886903763,0.03843631595373154
0.01074841246008873,0.03656349331140518,0.0363338403403759
0.02636898122727871,0.04590342193841934,0.055093273520469666
0.014735134318470955,0.020796112716197968,0.03228956460952759
0.03569462522864342,0.04725281521677971,0.01905233785510063
0.037636611610651016,0.042292170226573944,0.05653715506196022
0.022737715393304825,0.03483131155371666,0.03303305059671402
0.16735120117664337,0.027841005474328995,0.053994737565517426
0.024510644376277924,0.028081312775611877,0.041360676288604736
0.09418227523565292,0.08698239177465439,0.11762431263923645
0.022087818011641502,0.05758285149931908,0.027099795639514923
0.19161160290241241,0.0470443069934845,0.029990745708346367
0.031792789697647095,0.12066160887479782,0.024201998487114906
0.04085998609662056,0.02748127654194832,0.04652833566069603
0.032345764338970184,0.029806168749928474,0.03874858468770981
0.09120673686265945,0.028727233409881592,0.03883861005306244
0.05397052690386772,0.054339077323675156,0.08123250305652618
0.1030454933643341,0.06444855779409409,0.033148184418678284
0.039593953639268875,0.06155090406537056,0.06031189486384392
0.05104699730873108,0.018386442214250565,0.0324186272919178
0.013339297845959663,0.046689651906490326,0.011913413181900978
0.04081615060567856,0.04932788759469986,0.06845244765281677
0.09962712973356247,0.05255173519253731,0.04999396950006485
0.036397308111190796,0.11826116591691971,0.023255402222275734
0.02034207619726658,0.058738354593515396,0.04530840367078781
0.06710677593946457,0.03744131699204445,0.06388241052627563
0.022569667547941208,0.02450636215507984,0.16313627362251282
0.061562854796648026,0.07722324877977371,0.06990569084882736
0.05295895040035248,0.04563712328672409,0.062476351857185364
0.13435406982898712,0.03368870168924332,0.05420337989926338
0.10252859443426132,0.03144310787320137,0.051953770220279694
0.04724811762571335,0.030741212889552116,0.029796477407217026
0.11844923347234726,0.1183539628982544,0.17311224341392517
0.053233299404382706,0.012625295668840408,0.02564501389861107
0.022234098985791206,0.028509337455034256,0.09999030828475952
0.029758386313915253,0.027548225596547127,0.029487628489732742
0.017738845199346542,0.043650176376104355,0.044251952320337296
0.02707289159297943,0.0758456289768219,0.015529338270425797
0.03677414730191231,0.03470185771584511,0.027964510023593903
0.044031769037246704,0.04238595813512802,0.03575576841831207
0.05992431193590164,0.04264744371175766,0.07185681164264679
0.016935715451836586,0.04474122077226639,0.026592165231704712
0.02123109996318817,0.023664839565753937,0.12752294540405273
0.11782953143119812,0.019611002877354622,0.05988449230790138
0.04882906377315521,0.013314771465957165,0.02223653346300125
0.05523544177412987,0.014298304915428162,0.046682994812726974
0.16741269826889038,0.05963908135890961,0.035167522728443146
0.03652510046958923,0.0625489354133606,0.0531456284224987
0.013679939322173595,0.0391901358962059,0.015442696399986744
0.05536816641688347,0.05660562217235565,0.06054474785923958
0.05650660768151283,0.05176057666540146,0.07510735839605331
0.09883134812116623,0.02778310887515545,0.1206836849451065
0.06228737533092499,0.11132185161113739,0.05943986400961876
0.07104674726724625,0.11017585545778275,0.07119715213775635
0.04910341277718544,0.06302425265312195,0.057006027549505234
0.052183665335178375,0.03814386948943138,0.03848911076784134
0.1125471368432045,0.08960725367069244,0.06920363754034042
0.02990018203854561,0.03607463464140892,0.03772793337702751
0.04441533982753754,0.062333136796951294,0.05734067037701607
0.07167810946702957,0.058540403842926025,0.05078823119401932
0.044448867440223694,0.033713508397340775,0.01893225684762001
0.044615671038627625,0.02745492197573185,0.03517066314816475
0.06709995120763779,0.0372215211391449,0.06709086894989014
0.040821753442287445,0.08058813959360123,0.02958056703209877
0.017409376800060272,0.10458311438560486,0.020605148747563362
0.019683757796883583,0.03914082422852516,0.04214395955204964
0.03639228641986847,0.057587310671806335,0.11988960951566696
0.05777610093355179,0.06368733942508698,0.08947059512138367
0.023423638194799423,0.058809686452150345,0.04450018331408501
0.022628404200077057,0.006090747192502022,0.021933862939476967
0.01523509994149208,0.012243124656379223,0.03384043648838997
0.013116329908370972,0.03389563784003258,0.0758962631225586
0.014163769781589508,0.011852717027068138,0.058993641287088394
0.04126538336277008,0.017159776762127876,0.023605607450008392
0.0625060573220253,0.043436888605356216,0.03852532058954239
0.06066353991627693,0.06621558964252472,0.0320979543030262
0.05690229684114456,0.06127697229385376,0.0834215059876442
0.04903494194149971,0.0398842915892601,0.05832375958561897
0.07209451496601105,0.053494758903980255,0.02462068572640419
0.02469613589346409,0.015330680646002293,0.043671224266290665
0.021988440304994583,0.020970569923520088,0.07572046667337418
0.10241766273975372,0.10870816558599472,0.12463558465242386
0.09547925740480423,0.14103420078754425,0.10292862355709076
0.10992768406867981,0.08558492362499237,0.08865562081336975
0.019598571583628654,0.014398847706615925,0.13664422929286957
0.028033025562763214,0.09411245584487915,0.0625515878200531
0.05355872958898544,0.053652193397283554,0.09275361895561218
0.027222074568271637,0.04268283769488335,0.01247180812060833
0.017962859943509102,0.01900392584502697,0.02616099826991558
0.06325560808181763,0.06854644417762756,0.047700561583042145
0.027048198506236076,0.04239716753363609,0.0608488954603672
0.009393288753926754,0.012800841592252254,0.02995995804667473
0.03720429539680481,0.049963030964136124,0.009297309443354607
0.03417951241135597,0.034083541482686996,0.03023865818977356
0.04684467241168022,0.04410690441727638,0.06582657992839813
0.06522569060325623,0.0772935226559639,0.05767558142542839
0.08959068357944489,0.0670764371752739,0.044664595276117325
0.04578622430562973,0.06302601844072342,0.08765009045600891
0.02774827927350998,0.04489670321345329,0.01860591396689415
0.055468253791332245,0.028925392776727676,0.04615526273846626
0.023400917649269104,0.024844583123922348,0.019840732216835022
0.015742406249046326,0.02035652846097946,0.010411927476525307
0.03036872297525406,0.02806551568210125,0.026728780940175056
0.05485759675502777,0.04168688878417015,0.13590312004089355
0.04396924003958702,0.030416712164878845,0.03699854388833046
0.051117490977048874,0.04525075480341911,0.1443125307559967
0.02941400557756424,0.08461831510066986,0.04485918954014778
0.033417023718357086,0.022514691576361656,0.04301828891038895
0.069112628698349,0.061265699565410614,0.07576978206634521
0.04054401442408562,0.053587328642606735,0.15369033813476562
0.059153962880373,0.04921184480190277,0.06225978210568428
0.1065007671713829,0.04449862241744995,0.06115984171628952
0.046785127371549606,0.034496210515499115,0.0347701832652092
0.01552298478782177,0.06923394650220871,0.03444104269146919
0.014435380697250366,0.026369277387857437,0.053990378975868225
0.03955433517694473,0.03799590840935707,0.0666569247841835
0.05487453192472458,0.039366837590932846,0.02169720269739628
0.01589174196124077,0.01822863705456257,0.03653400391340256
0.03963257372379303,0.08558758348226547,0.19403064250946045
0.04958111792802811,0.06720660626888275,0.015288046561181545
0.018879331648349762,0.13169394433498383,0.06339659541845322
0.011483345180749893,0.022421270608901978,0.01909494772553444
0.13146650791168213,0.09039530158042908,0.033612046390771866
0.029409723356366158,0.034612298011779785,0.06786878407001495
0.06082436814904213,0.06543848663568497,0.16865921020507812
0.04631680250167847,0.0770157128572464,0.05882260575890541
0.09619396924972534,0.06289570033550262,0.07573919743299484
0.08304433524608612,0.061647675931453705,0.04763217270374298
0.0823783129453659,0.08687794208526611,0.024690037593245506
0.045705653727054596,0.07749416679143906,0.031485844403505325
0.04035855457186699,0.07088647782802582,0.03543778881430626
0.041110120713710785,0.04656596854329109,0.03681208938360214
0.03383345156908035,0.026729919016361237,0.05936342477798462
0.03920239955186844,0.05427422374486923,0.059537749737501144
0.023444201797246933,0.019494060426950455,0.04318709298968315
0.04145544767379761,0.04021934047341347,0.04878654703497887
0.012167682871222496,0.036020759493112564,0.038794320076704025
0.030732985585927963,0.019157184287905693,0.03193611651659012
0.030022406950592995,0.05188896879553795,0.04967372119426727
0.057064976543188095,0.06575631350278854,0.11130312830209732
0.044283848255872726,0.033981408923864365,0.07531238347291946
0.09454939514398575,0.0796542689204216,0.04503781720995903
0.047118525952100754,0.09430014342069626,0.05547373369336128
0.07690106332302094,0.10051514953374863,0.03485614433884621
0.09716598689556122,0.08848229050636292,0.10295148938894272
0.019399408251047134,0.020296476781368256,0.047033511102199554
0.03683314099907875,0.029049905017018318,0.12173701822757721
0.1984887272119522,0.04484892636537552,0.06084737554192543
0.028662338852882385,0.025718457996845245,0.05115220323204994
0.02077397145330906,0.05395886301994324,0.03595476597547531
0.0395115502178669,0.030426882207393646,0.15979646146297455
0.051544900983572006,0.049289505928754807,0.056583650410175323
0.07224719971418381,0.11682600528001785,0.11806665360927582
0.02273561991751194,0.022232428193092346,0.04678177461028099
0.0522385910153389,0.06492353975772858,0.07609716802835464
0.01651075668632984,0.08630254864692688,0.06180279329419136
0.04881769418716431,0.02427859790623188,0.07696367055177689
0.05355365201830864,0.048951901495456696,0.06095963343977928
0.041733454912900925,0.06282585859298706,0.0496438592672348
0.012612218037247658,0.009893304668366909,0.06502967327833176
0.04343940690159798,0.013991246931254864,0.05362394452095032
0.022077782079577446,0.09141495078802109,0.021947750821709633
0.016824036836624146,0.03964231163263321,0.034499622881412506
0.055966127663850784,0.009220492094755173,0.010654013603925705
0.047826096415519714,0.060264382511377335,0.03735959529876709
0.015058665536344051,0.03355424478650093,0.10504470020532608
0.09654131531715393,0.09186363220214844,0.09214571863412857
0.021825646981596947,0.10360463708639145,0.019156966358423233
0.043246231973171234,0.019009998068213463,0.028771748766303062
0.03169657662510872,0.02474144659936428,0.059759654104709625
0.05005944147706032,0.12479094415903091,0.07045529037714005
0.0603489987552166,0.11220481246709824,0.05705450847744942
0.10197184234857559,0.073758065700531,0.04346536472439766
0.02764560841023922,0.02152048796415329,0.05464472621679306
0.11153589189052582,0.09082689881324768,0.08345020562410355
0.04123084247112274,0.032109636813402176,0.082239530980587
0.040253691375255585,0.06975404173135757,0.014903062023222446
0.07398644089698792,0.023808196187019348,0.03381863608956337
0.016102850437164307,0.017063727602362633,0.059140656143426895
0.08750729262828827,0.03948613628745079,0.015597818419337273
0.03307069465517998,0.19463689625263214,0.14427252113819122
0.11960037052631378,0.10867273807525635,0.08717670291662216
0.05950118601322174,0.10238873958587646,0.12202877551317215
0.014888659119606018,0.12362819164991379,0.032647326588630676
0.03707674890756607,0.039004869759082794,0.039900630712509155
0.1010611429810524,0.070494644343853,0.0835595428943634
0.05901416018605232,0.012688349932432175,0.060831937938928604
0.03653518855571747,0.05863892287015915,0.052392393350601196
0.06612417846918106,0.034971870481967926,0.05865885317325592
0.03351414203643799,0.04872987046837807,0.09743659198284149
0.02884969301521778,0.08363252878189087,0.03445928171277046
0.07803990691900253,0.23885028064250946,0.0731523185968399
0.03757742419838905,0.037233322858810425,0.06297167390584946
0.048821672797203064,0.0770602822303772,0.0923108235001564
0.14960436522960663,0.04761052876710892,0.06868042051792145
0.025036239996552467,0.038806624710559845,0.042650267481803894
